time_ms,I,II,III,aVR,aVL,aVF,V1,V2,V3,V4,V5,V6
0.0,0,1,0,0,0,0,0,1,1,0,-1,1
1.0,0,1,0,0,0,0,0,1,1,0,-1,1
2.0,0,1,0,0,0,0,0,1,1,0,-1,1
3.0,0,1,0,0,0,0,0,1,1,0,-1,1
4.0,0,1,0,0,0,0,0,1,1,0,-1,1
5.0,0,1,0,0,0,0,0,1,1,0,-1,1
6.0,0,1,0,0,0,0,0,1,1,0,-1,1
7.0,0,1,0,0,0,0,0,1,1,0,-1,1
8.0,0,1,0,0,0,0,0,1,1,0,-1,1
9.0,0,1,0,0,0,0,0,1,1,0,-1,1
10.0,0,1,0,0,0,0,0,1,1,0,-1,1
11.0,0,1,0,0,0,0,0,1,1,0,-1,1
12.0,0,1,0,0,0,0,0,1,1,0,-1,1
13.0,0,1,0,0,0,0,0,1,1,0,-1,1
14.0,0,1,0,0,0,0,0,1,1,0,-1,1
15.0,0,1,0,0,0,0,0,1,1,0,-1,1
16.0,0,1,0,0,0,0,0,1,1,0,-1,1
17.0,0,1,0,0,0,0,0,0,1,0,-1,1
18.0,0,1,0,0,0,0,0,0,1,0,-1,1
19.0,0,1,0,0,0,0,0,0,1,0,-1,1
20.0,0,1,0,0,0,0,0,0,1,0,-1,1
21.0,0,1,0,0,0,0,0,1,1,0,-1,1
22.0,0,1,0,0,0,0,0,1,1,0,-1,1
23.0,0,1,0,0,0,0,0,1,1,0,-1,1
24.0,0,1,0,0,0,0,0,1,1,0,-1,1
25.0,0,1,0,0,0,0,0,1,1,0,-1,1
26.0,0,1,0,0,0,0,0,1,1,0,-1,1
27.0,0,1,0,0,0,0,0,1,1,0,-1,1
28.0,0,1,0,0,0,0,0,1,1,0,-1,1
29.0,0,1,0,0,0,0,0,0,1,0,-1,1
30.0,0,1,0,0,0,0,0,0,1,0,-1,1
31.0,0,1,0,0,0,0,0,0,1,0,-1,1
32.0,0,1,0,0,0,0,0,0,1,0,-1,1
33.0,0,1,0,0,0,0,0,0,1,0,-1,1
34.0,0,1,0,0,0,0,0,0,1,0,-1,1
35.0,0,1,0,0,0,0,0,0,0,0,-1,1
36.0,0,1,0,0,0,0,0,0,0,0,-1,1
37.0,0,1,0,0,0,0,0,0,0,0,-1,1
38.0,0,1,0,0,0,0,0,0,0,0,-1,1
39.0,0,1,0,0,0,0,0,0,0,0,-1,1
40.0,0,1,0,0,0,0,0,0,0,0,-1,1
41.0,0,1,0,0,0,0,0,0,0,0,-1,1
42.0,0,1,0,0,0,0,0,0,0,0,-1,1
43.0,0,1,0,0,0,0,0,0,0,0,-1,2
44.0,0,1,0,0,0,0,0,0,0,0,-1,2
45.0,0,1,0,0,0,0,0,0,0,0,-1,2
46.0,0,1,0,0,0,0,0,0,0,0,-1,2
47.0,0,1,0,0,0,0,0,0,0,0,-1,2
48.0,0,1,0,0,0,0,0,0,0,0,-1,2
49.0,0,1,0,0,0,0,0,0,0,0,-1,2
50.0,0,1,0,0,0,0,0,0,0,0,-1,2
51.0,0,1,0,0,0,0,0,0,0,0,-1,1
52.0,0,1,0,0,0,0,0,0,0,0,-1,1
53.0,0,1,0,0,0,0,0,0,0,0,-1,1
54.0,0,1,0,0,0,0,0,0,0,0,-1,1
55.0,0,1,0,0,0,0,0,0,0,0,-1,1
56.0,0,1,0,0,0,0,0,0,0,0,-1,1
57.0,0,1,0,0,0,0,0,0,0,0,-1,1
58.0,0,1,0,0,0,0,0,0,0,0,-1,1
59.0,0,1,0,0,0,0,0,-1,0,0,-1,1
60.0,0,1,0,0,0,0,0,-1,0,0,-1,1
61.0,0,1,0,0,0,0,0,-1,0,0,-1,1
62.0,0,1,0,0,0,0,0,-1,0,0,-1,1
63.0,0,1,0,0,0,0,0,-1,0,0,-1,1
64.0,0,1,0,0,0,0,0,-1,0,0,-1,1
65.0,0,1,0,0,0,0,0,-1,0,0,-1,1
66.0,0,1,0,0,0,0,0,0,0,0,-1,1
67.0,0,1,0,0,0,0,0,0,0,0,-1,1
68.0,0,1,0,0,0,0,0,0,0,0,-1,1
69.0,0,1,0,0,0,0,0,0,0,0,-1,1
70.0,0,1,0,0,0,0,0,0,0,0,0,2
71.0,0,1,0,0,0,0,0,0,0,0,0,2
72.0,0,1,0,0,0,0,0,0,0,0,0,2
73.0,0,1,0,0,0,0,0,0,0,0,0,2
74.0,0,1,0,0,0,0,0,0,0,0,0,2
75.0,0,1,0,0,0,0,0,0,0,0,0,2
76.0,0,1,0,0,0,0,0,0,0,0,0,1
77.0,0,1,0,0,0,0,0,0,0,0,0,1
78.0,0,1,0,0,0,0,0,0,-1,0,0,1
79.0,0,1,0,0,0,0,0,0,-1,0,0,1
80.0,0,1,0,0,0,0,0,-1,-1,0,0,1
81.0,0,1,0,0,0,0,0,-1,-1,0,0,1
82.0,0,1,0,0,0,0,0,-1,-1,0,0,1
83.0,0,1,0,0,0,0,0,-1,-1,0,0,1
84.0,0,1,0,0,0,0,0,-1,-1,0,0,1
85.0,0,1,0,0,0,0,0,-1,-1,0,0,1
86.0,0,1,0,0,0,0,0,-1,-1,0,0,1
87.0,0,1,0,0,0,0,0,-1,-1,0,0,1
88.0,0,1,0,0,0,0,0,-1,-1,0,0,1
89.0,0,1,0,0,0,0,0,-1,-1,0,0,1
90.0,0,1,0,0,0,0,0,-1,-1,0,0,1
91.0,0,1,0,0,0,0,0,-1,-1,0,0,1
92.0,0,1,0,0,0,0,0,-1,-1,0,0,1
93.0,0,1,0,0,0,0,0,-1,-1,0,0,1
94.0,0,1,0,0,0,0,0,-1,-1,0,0,1
95.0,0,1,0,0,0,0,0,-1,-1,0,0,1
96.0,0,1,0,0,0,0,0,-1,-1,0,0,1
97.0,0,1,0,0,0,0,0,-1,-1,0,0,1
98.0,0,1,0,0,0,0,0,-1,-1,0,0,1
99.0,0,1,0,0,0,0,0,-1,-1,0,0,1
100.0,0,1,0,0,0,0,0,-1,-1,0,0,1
101.0,0,1,0,0,0,0,0,-1,-1,0,0,1
102.0,0,1,0,0,0,0,0,-1,-1,0,0,1
103.0,0,1,0,0,0,0,0,-1,-1,0,0,1
104.0,0,1,0,0,0,0,0,-1,-1,0,0,1
105.0,0,1,0,0,0,0,0,-1,-1,0,0,1
106.0,0,1,0,0,0,0,0,-1,-1,0,0,1
107.0,0,1,0,0,0,0,0,-1,-1,0,0,1
108.0,0,1,0,0,0,0,0,-1,-1,0,0,1
109.0,0,1,0,0,0,0,0,-1,-1,0,0,1
110.0,0,1,0,0,0,0,0,-1,-1,0,0,1
111.0,0,1,0,0,0,0,0,-1,-1,0,0,1
112.0,0,1,0,0,0,0,0,-1,-1,0,0,1
113.0,0,1,0,0,0,0,0,-1,-1,0,0,1
114.0,0,1,0,0,0,0,0,-1,-1,0,0,1
115.0,0,1,0,0,0,0,0,-1,-1,0,0,1
116.0,0,1,0,0,0,0,0,-1,-1,0,0,1
117.0,0,1,0,0,0,0,0,-1,-1,0,0,1
118.0,0,1,0,0,0,0,0,-1,-1,0,0,1
119.0,0,1,0,0,0,0,0,-1,-1,0,0,1
120.0,0,1,0,0,0,0,0,-1,-1,0,0,1
121.0,0,1,0,0,0,0,0,-1,-1,0,0,1
122.0,0,1,0,0,0,0,0,-1,-1,0,0,1
123.0,0,1,0,0,0,0,0,-1,-1,0,0,1
124.0,0,1,0,0,0,0,0,-1,-1,0,0,1
125.0,0,1,0,0,0,0,0,-1,-1,0,0,1
126.0,0,1,0,0,0,0,0,-1,-1,0,0,1
127.0,0,1,0,0,0,0,0,-1,-1,0,0,1
128.0,-1,1,0,0,0,0,0,-1,-1,0,0,1
129.0,-1,1,0,0,0,0,0,-1,-1,0,0,1
130.0,-1,1,0,0,0,0,0,-1,-1,0,0,1
131.0,-1,1,0,0,0,0,0,-1,-1,0,0,1
132.0,0,1,0,0,0,0,0,-1,-1,0,0,2
133.0,0,1,0,0,0,0,0,-1,-1,0,0,2
134.0,0,1,0,0,0,0,0,-1,-1,0,0,2
135.0,0,1,0,0,0,0,0,0,-1,0,0,2
136.0,0,1,0,0,0,0,0,0,-1,0,0,2
137.0,0,1,0,0,0,0,0,-1,-1,0,0,2
138.0,0,1,0,0,0,0,0,-1,-1,0,0,2
139.0,0,1,0,0,0,0,0,-1,-1,0,0,2
140.0,0,1,0,0,0,0,0,-1,-1,0,0,2
141.0,0,1,0,0,0,0,0,-1,-1,0,0,2
142.0,0,1,0,0,0,0,0,-1,-1,0,0,2
143.0,0,1,0,0,0,0,0,-1,-1,0,0,2
144.0,0,1,0,0,0,0,0,-1,-1,1,0,2
145.0,0,1,0,0,0,0,0,-1,-1,1,0,2
146.0,0,1,0,0,0,0,0,-1,-1,1,0,2
147.0,0,1,0,0,0,0,0,-1,-1,1,1,2
148.0,0,1,0,0,0,0,0,0,-1,1,1,2
149.0,0,1,0,0,0,0,0,0,-1,1,1,2
150.0,0,1,0,0,0,0,0,-1,-1,1,1,2
151.0,0,1,0,0,0,0,0,-1,-1,1,1,1
152.0,0,1,0,0,0,0,0,-1,-1,1,1,1
153.0,0,1,0,0,0,0,0,-1,-1,1,1,1
154.0,0,1,0,0,0,0,0,-1,-1,1,0,1
155.0,0,1,0,0,0,0,0,-1,-1,1,0,1
156.0,0,1,0,0,0,0,0,-1,-1,1,0,1
157.0,0,1,0,0,0,0,0,-1,-1,1,0,1
158.0,0,1,0,0,0,0,0,-1,-1,1,0,1
159.0,0,1,0,0,0,0,0,-1,-1,1,0,1
160.0,0,1,0,0,0,0,0,-1,-1,1,0,1
161.0,0,1,0,0,0,0,0,-1,-1,1,0,1
162.0,0,1,0,0,0,0,0,-1,-1,1,0,1
163.0,0,1,0,0,0,0,0,-1,-1,1,0,1
164.0,0,1,0,0,0,0,0,-1,-1,1,0,1
165.0,0,1,0,0,0,0,0,-1,-1,1,0,1
166.0,0,1,0,0,0,0,0,-1,-1,1,0,1
167.0,0,1,0,0,0,0,0,0,-1,1,0,1
168.0,0,1,0,0,0,0,0,0,-1,1,0,1
169.0,0,1,0,0,0,0,0,0,-1,1,1,1
170.0,0,1,0,0,0,0,0,0,-1,1,1,1
171.0,0,1,0,0,0,0,0,0,-1,1,1,1
172.0,0,1,0,0,0,0,0,0,-1,1,1,1
173.0,0,1,0,0,0,0,0,0,-1,1,1,1
174.0,0,1,0,0,0,0,0,0,-1,1,1,1
175.0,0,1,0,0,0,0,0,0,-1,1,1,1
176.0,0,1,0,0,0,0,0,0,-1,1,1,1
177.0,0,1,0,0,0,0,0,0,-1,1,1,1
178.0,0,1,0,0,0,0,0,0,-1,1,1,1
179.0,0,1,0,0,0,0,0,-1,-1,1,1,1
180.0,0,1,0,0,0,0,0,-1,-1,1,1,1
181.0,0,1,0,0,0,0,0,-1,-1,1,1,1
182.0,0,1,0,0,0,0,0,-1,-1,1,1,1
183.0,0,1,0,0,0,0,0,-1,-1,1,1,1
184.0,0,1,0,0,0,0,0,-1,-1,1,1,1
185.0,0,1,0,0,0,0,0,0,-1,1,1,1
186.0,0,1,0,0,0,0,0,0,-1,1,1,1
187.0,0,1,0,0,0,0,0,0,-1,1,1,1
188.0,0,1,0,0,0,0,0,0,-1,1,1,1
189.0,0,1,0,0,0,0,0,0,-1,1,1,1
190.0,0,1,0,0,0,0,0,0,-1,1,1,1
191.0,0,1,0,0,0,0,0,0,-1,1,1,1
192.0,0,1,0,0,0,0,0,0,-1,1,1,1
193.0,0,1,0,0,0,0,0,0,-1,1,1,1
194.0,0,1,0,0,0,0,0,0,-1,1,1,1
195.0,0,1,0,0,0,0,0,0,-1,1,1,2
196.0,0,1,0,0,0,0,0,0,-1,1,1,2
197.0,0,1,0,0,0,0,0,0,-1,1,1,2
198.0,0,1,0,0,0,0,0,0,-1,1,1,1
199.0,0,1,0,0,0,0,0,0,-1,1,1,1
200.0,0,1,0,0,0,0,0,0,-1,1,1,1
201.0,0,1,0,0,0,0,0,0,-1,1,1,1
202.0,0,1,0,0,0,0,0,0,-1,1,1,1
203.0,0,1,0,0,0,0,0,0,-1,1,1,1
204.0,0,1,0,0,0,0,0,0,-1,2,1,1
205.0,0,1,0,0,0,0,0,0,-1,2,1,1
206.0,0,1,0,0,0,0,0,0,-1,2,1,1
207.0,0,1,0,0,0,0,0,0,-1,2,1,1
208.0,0,1,0,0,0,0,0,0,-1,2,1,1
209.0,0,1,0,0,0,0,0,0,-1,2,1,1
210.0,0,1,0,0,0,0,0,0,-1,2,1,1
211.0,0,1,0,0,0,0,0,0,-1,2,1,1
212.0,0,1,0,0,0,0,0,0,-1,2,1,1
213.0,0,1,0,0,0,0,0,0,-1,2,1,1
214.0,0,1,0,0,0,0,0,0,-1,2,1,1
215.0,0,1,0,0,0,0,0,0,-1,2,1,1
216.0,0,1,0,0,0,0,0,0,-1,2,1,1
217.0,0,1,0,0,0,0,0,0,-1,2,1,1
218.0,0,1,0,0,0,0,0,0,-1,2,1,1
219.0,0,1,0,0,0,0,0,0,-1,2,1,1
220.0,0,1,0,0,0,0,0,0,-1,2,1,1
221.0,0,1,0,0,0,0,0,0,-1,2,1,1
222.0,0,1,0,0,0,0,0,0,-1,2,1,1
223.0,0,1,0,0,0,0,0,0,-1,2,1,1
224.0,0,1,0,0,0,0,0,0,-1,2,1,1
225.0,0,1,0,0,0,0,0,0,-1,2,1,1
226.0,0,1,0,0,0,0,0,0,-1,2,1,1
227.0,0,1,0,0,0,0,0,0,-1,2,1,1
228.0,0,1,0,0,0,0,0,0,-1,2,1,1
229.0,0,1,0,0,0,0,0,0,-1,2,1,1
230.0,-1,1,0,0,0,0,0,0,-1,2,1,1
231.0,-1,1,0,0,0,0,0,0,-1,2,1,1
232.0,-1,1,0,0,0,0,0,0,-1,2,1,1
233.0,-1,1,0,0,0,0,0,0,-1,2,1,1
234.0,-1,1,0,0,0,0,0,0,-1,2,1,1
235.0,0,1,0,0,0,0,0,0,-1,2,1,1
236.0,0,1,0,0,0,0,0,0,-1,2,1,1
237.0,0,1,0,0,0,0,0,0,-1,2,1,1
238.0,0,1,0,0,0,0,0,0,0,2,1,1
239.0,0,1,0,0,0,0,0,0,0,2,1,1
240.0,0,1,0,0,0,0,0,0,0,2,1,2
241.0,0,1,0,0,0,0,0,0,0,2,1,2
242.0,0,1,0,0,0,0,0,0,-2,2,1,2
243.0,0,-1,0,0,0,0,0,-1,-6,2,0,0
244.0,1,-3,-1,0,0,-1,0,-3,-10,1,0,-2
245.0,1,-3,-1,0,0,-1,0,-3,-10,1,-1,-2
246.0,1,-2,-1,0,0,-1,0,-2,0,1,-1,-1
247.0,0,1,-1,0,0,-1,0,-1,0,1,0,1
248.0,0,0,-1,0,0,-1,0,0,1,1,0,1
249.0,0,1,0,0,0,0,0,0,2,2,0,2
250.0,0,1,0,0,0,0,0,1,2,2,1,2
251.0,0,1,0,0,0,0,0,1,3,2,1,3
252.0,0,2,0,0,0,0,0,1,2,3,1,3
253.0,0,2,0,0,0,0,0,1,2,3,1,3
254.0,0,2,0,0,0,0,0,1,2,3,2,3
255.0,0,1,0,0,0,0,0,1,2,3,2,3
256.0,0,1,0,0,0,0,0,1,2,3,2,3
257.0,0,1,0,0,0,0,0,1,2,3,2,3
258.0,-1,1,0,0,0,0,0,1,1,3,2,2
259.0,-1,1,0,0,0,0,0,1,1,3,2,2
260.0,-1,1,0,0,0,0,0,1,1,3,2,2
261.0,-1,1,0,0,0,0,0,1,1,4,2,2
262.0,-1,1,0,0,0,0,0,1,0,4,2,2
263.0,-1,1,0,0,0,0,0,1,0,4,2,2
264.0,-1,1,0,0,0,0,0,1,0,4,2,2
265.0,-1,1,0,0,0,0,0,1,0,4,2,2
266.0,-1,1,0,0,0,0,0,1,0,4,2,2
267.0,-1,1,0,0,0,0,0,1,0,4,2,2
268.0,-1,1,0,0,0,0,0,1,0,4,2,2
269.0,-1,1,0,0,0,0,0,1,0,4,2,2
270.0,-1,1,0,0,0,0,0,1,0,4,2,2
271.0,-1,1,0,0,0,0,0,1,1,4,2,2
272.0,-1,1,0,0,0,0,0,1,1,4,2,2
273.0,-1,1,0,0,0,0,0,1,1,4,2,1
274.0,0,1,0,0,0,0,0,2,2,4,2,1
275.0,0,1,0,0,0,0,0,2,2,4,2,1
276.0,0,1,0,0,0,0,0,2,2,4,2,1
277.0,-1,1,0,0,0,0,0,2,2,4,2,1
278.0,-1,1,0,0,0,0,0,2,2,4,1,1
279.0,-1,1,0,0,0,0,0,2,2,4,1,0
280.0,-1,1,0,0,0,0,0,2,3,4,1,0
281.0,-1,0,0,0,0,0,0,2,3,4,1,0
282.0,-1,0,0,1,0,0,1,2,4,4,1,-1
283.0,-2,0,0,1,0,0,1,3,4,4,1,-1
284.0,-2,0,0,1,0,0,1,3,5,4,1,-1
285.0,-2,0,0,1,-1,0,1,3,5,5,1,-1
286.0,-2,0,0,1,-1,0,1,3,5,5,1,-1
287.0,-2,0,0,1,-1,0,1,4,6,5,1,-2
288.0,-2,0,0,1,-1,0,2,4,6,5,1,-2
289.0,-1,0,0,1,-1,0,2,4,6,5,1,-2
290.0,-1,0,0,1,-1,0,2,5,6,5,1,-2
291.0,-1,0,0,1,-1,0,2,5,6,5,1,-1
292.0,-1,0,0,1,0,0,2,5,6,5,1,-1
293.0,-1,0,0,1,0,0,2,5,6,6,1,-1
294.0,-1,0,0,1,0,0,2,4,6,6,1,-1
295.0,-1,0,0,1,0,0,2,4,6,6,2,-1
296.0,-1,0,0,1,0,0,1,4,5,7,2,0
297.0,-1,0,0,1,0,0,1,4,5,8,2,0
298.0,-1,0,0,1,0,0,1,3,5,8,2,0
299.0,-1,0,0,1,0,0,1,3,5,9,3,1
300.0,0,0,0,1,0,0,0,2,5,10,3,1
301.0,0,0,0,1,0,0,0,2,4,10,4,1
302.0,0,0,0,1,0,0,0,2,4,11,5,2
303.0,0,1,0,1,0,0,0,1,3,11,5,2
304.0,0,1,0,1,0,0,0,0,2,12,7,3
305.0,0,1,0,0,0,0,-1,-1,2,13,7,4
306.0,0,1,0,0,0,0,-1,-1,2,13,8,4
307.0,0,2,0,0,0,0,-1,-2,2,13,8,5
308.0,0,3,0,0,0,0,-2,-4,1,14,10,6
309.0,0,3,0,0,0,0,-2,-5,0,14,10,6
310.0,0,4,0,0,0,0,-3,-6,-1,15,11,7
311.0,0,5,1,0,0,1,-4,-8,-2,15,11,8
312.0,1,6,1,0,0,1,-5,-9,-4,15,12,9
313.0,1,6,1,0,0,1,-5,-11,-6,14,12,10
314.0,1,7,2,-1,-1,2,-5,-11,-9,14,12,10
315.0,1,7,2,-1,-1,2,-6,-13,-11,13,12,11
316.0,1,8,2,-1,-1,2,-7,-15,-13,11,12,12
317.0,1,8,2,-1,-1,2,-7,-16,-16,10,12,12
318.0,1,8,2,-2,-1,3,-8,-17,-19,9,11,13
319.0,1,8,3,-2,-1,3,-8,-19,-24,7,11,13
320.0,1,8,3,-2,-1,3,-9,-22,-28,4,10,14
321.0,1,8,3,-2,-1,4,-10,-24,-32,1,9,15
322.0,1,9,3,-2,-1,4,-10,-27,-35,-2,8,16
323.0,1,9,3,-3,-1,4,-10,-28,-39,-5,7,16
324.0,1,9,4,-3,-1,4,-11,-31,-42,-8,6,18
325.0,1,9,4,-3,-1,5,-11,-33,-44,-11,5,18
326.0,1,9,4,-3,-1,5,-12,-34,-46,-14,5,19
327.0,1,10,5,-3,-1,5,-12,-37,-49,-18,3,21
328.0,1,10,5,-3,-2,5,-12,-39,-50,-21,2,22
329.0,1,10,5,-3,-2,5,-13,-40,-52,-24,2,22
330.0,1,10,5,-3,-2,6,-13,-41,-53,-27,2,23
331.0,1,11,6,-4,-2,6,-14,-44,-55,-30,0,25
332.0,1,11,6,-4,-2,6,-14,-45,-56,-33,-1,26
333.0,1,11,6,-4,-2,7,-14,-45,-56,-36,-1,26
334.0,1,11,6,-4,-2,7,-15,-46,-57,-38,-2,27
335.0,1,12,7,-4,-2,7,-15,-47,-58,-41,-3,28
336.0,1,12,7,-4,-3,7,-15,-48,-58,-43,-4,29
337.0,1,12,7,-4,-3,7,-16,-48,-58,-44,-4,29
338.0,1,12,7,-4,-3,8,-16,-48,-57,-46,-5,30
339.0,1,12,7,-5,-3,8,-16,-48,-57,-49,-7,30
340.0,1,12,7,-5,-3,8,-16,-48,-56,-51,-7,31
341.0,1,12,7,-5,-3,8,-16,-47,-56,-52,-8,31
342.0,1,12,7,-5,-3,8,-17,-47,-55,-53,-9,31
343.0,1,12,8,-5,-3,8,-17,-46,-54,-55,-10,31
344.0,1,12,8,-5,-3,8,-17,-46,-53,-57,-11,31
345.0,1,12,8,-5,-3,8,-17,-45,-53,-57,-12,30
346.0,1,12,8,-5,-3,8,-17,-45,-52,-58,-13,30
347.0,1,11,8,-5,-3,9,-16,-44,-51,-60,-14,30
348.0,1,11,8,-5,-3,9,-16,-43,-50,-61,-15,30
349.0,1,11,8,-5,-3,9,-16,-43,-50,-62,-16,29
350.0,1,11,8,-5,-3,9,-16,-42,-49,-62,-17,29
351.0,1,11,8,-5,-3,9,-15,-41,-48,-64,-18,27
352.0,1,10,8,-5,-3,8,-15,-40,-47,-64,-20,26
353.0,1,10,8,-5,-3,8,-15,-40,-46,-64,-20,26
354.0,1,10,8,-5,-3,8,-14,-38,-45,-65,-22,24
355.0,1,9,7,-5,-3,8,-13,-37,-44,-65,-23,23
356.0,1,9,7,-5,-3,8,-13,-37,-43,-66,-23,22
357.0,1,8,7,-5,-3,8,-12,-36,-42,-66,-24,20
358.0,0,8,7,-5,-3,8,-11,-34,-40,-66,-26,18
359.0,0,7,7,-4,-2,7,-10,-33,-38,-66,-27,17
360.0,0,6,6,-4,-2,7,-10,-31,-36,-66,-28,16
361.0,0,6,6,-4,-2,7,-9,-30,-35,-65,-28,15
362.0,0,5,6,-4,-2,7,-8,-28,-32,-65,-29,12
363.0,0,5,6,-4,-2,6,-7,-26,-30,-64,-30,11
364.0,0,5,6,-3,-2,6,-6,-26,-28,-64,-30,10
365.0,0,4,6,-3,-2,6,-5,-24,-25,-63,-31,9
366.0,0,4,5,-3,-2,6,-3,-22,-22,-61,-31,7
367.0,-1,3,5,-3,-2,5,-2,-20,-20,-60,-32,6
368.0,-1,3,5,-2,-2,5,-2,-19,-19,-60,-32,5
369.0,-1,3,5,-2,-2,5,0,-17,-15,-59,-32,4
370.0,-2,2,5,-2,-2,5,0,-15,-12,-57,-32,2
371.0,-2,2,5,-2,-2,4,2,-13,-10,-55,-32,1
372.0,-2,1,5,-1,-2,4,2,-12,-8,-54,-32,0
373.0,-3,1,4,-1,-2,4,4,-11,-6,-53,-32,-1
374.0,-3,1,4,-1,-2,4,5,-9,-4,-51,-32,-3
375.0,-3,1,4,0,-2,3,6,-8,-2,-49,-32,-4
376.0,-4,0,4,0,-2,3,7,-7,-1,-49,-32,-5
377.0,-4,-1,4,0,-3,3,8,-5,1,-46,-32,-7
378.0,-4,-1,3,0,-3,2,9,-4,2,-45,-32,-8
379.0,-5,-2,3,0,-3,2,10,-3,2,-43,-32,-9
380.0,-5,-2,3,0,-3,2,10,-3,2,-42,-31,-9
381.0,-5,-3,3,1,-3,1,11,-1,3,-41,-31,-10
382.0,-5,-3,3,1,-3,1,12,0,3,-39,-31,-11
383.0,-6,-3,2,1,-3,1,13,0,3,-38,-30,-12
384.0,-6,-4,2,2,-3,1,13,1,3,-37,-30,-12
385.0,-6,-4,2,2,-3,0,14,2,2,-35,-30,-13
386.0,-6,-4,2,2,-3,0,14,2,2,-34,-29,-14
387.0,-6,-5,2,3,-3,0,14,2,2,-33,-29,-14
388.0,-7,-5,2,3,-3,0,15,2,1,-31,-29,-14
389.0,-7,-6,2,3,-3,0,15,3,0,-30,-28,-15
390.0,-7,-6,1,4,-3,0,15,3,-1,-29,-28,-15
391.0,-8,-6,1,4,-3,0,15,3,-2,-28,-27,-15
392.0,-8,-6,1,4,-3,-1,15,3,-2,-27,-27,-15
393.0,-8,-6,1,5,-3,-1,14,3,-4,-25,-26,-16
394.0,-8,-6,1,5,-3,-1,14,2,-5,-24,-26,-16
395.0,-8,-7,1,5,-3,-1,13,2,-6,-24,-25,-16
396.0,-8,-7,1,5,-3,-1,13,2,-7,-23,-25,-16
397.0,-8,-7,1,5,-3,-2,12,2,-9,-21,-24,-16
398.0,-8,-7,0,6,-3,-2,11,1,-10,-20,-23,-16
399.0,-8,-7,0,6,-3,-2,11,0,-10,-20,-23,-16
400.0,-8,-7,0,6,-3,-2,10,0,-11,-19,-22,-16
401.0,-8,-7,0,6,-3,-2,9,-1,-11,-18,-21,-15
402.0,-7,-7,0,6,-3,-2,9,-1,-12,-17,-21,-15
403.0,-7,-7,0,6,-3,-2,8,-1,-12,-16,-20,-15
404.0,-7,-7,0,6,-3,-3,8,-1,-11,-15,-19,-15
405.0,-7,-7,0,6,-3,-3,7,-1,-11,-14,-19,-14
406.0,-7,-6,0,6,-3,-3,7,-1,-10,-13,-18,-14
407.0,-7,-6,0,6,-3,-3,6,-1,-10,-13,-18,-14
408.0,-6,-6,0,6,-3,-3,6,-1,-9,-11,-17,-13
409.0,-6,-6,0,6,-3,-3,5,-1,-8,-10,-16,-13
410.0,-6,-6,0,6,-3,-3,5,0,-7,-9,-15,-13
411.0,-6,-6,0,6,-3,-3,4,0,-7,-9,-15,-12
412.0,-5,-5,0,6,-3,-3,4,0,-5,-7,-14,-12
413.0,-5,-5,0,6,-2,-3,3,1,-4,-6,-13,-11
414.0,-5,-5,0,6,-2,-3,3,1,-3,-5,-12,-11
415.0,-5,-5,0,6,-2,-3,3,2,-2,-5,-12,-11
416.0,-4,-5,0,6,-2,-3,3,2,-1,-3,-11,-10
417.0,-4,-5,0,6,-2,-3,2,2,0,-2,-10,-10
418.0,-4,-5,0,6,-2,-3,2,3,1,-1,-9,-9
419.0,-4,-5,0,6,-2,-3,2,3,1,-1,-9,-9
420.0,-3,-4,-1,5,-2,-3,2,4,2,1,-8,-8
421.0,-3,-4,-1,5,-1,-3,2,4,3,1,-7,-8
422.0,-3,-4,-1,5,-1,-3,2,5,3,2,-6,-8
423.0,-3,-4,-1,5,-1,-3,2,5,4,3,-6,-8
424.0,-2,-4,-1,5,-1,-3,2,6,5,4,-5,-7
425.0,-2,-4,-1,5,-1,-3,1,6,5,5,-4,-7
426.0,-2,-4,-1,5,-1,-3,1,6,5,5,-4,-7
427.0,-2,-4,-1,4,-1,-3,1,7,6,6,-3,-6
428.0,-2,-4,-1,4,0,-3,1,7,7,7,-2,-6
429.0,-2,-3,-1,4,0,-3,1,7,7,7,-2,-6
430.0,-2,-3,-2,4,0,-3,1,8,7,8,-1,-6
431.0,-1,-3,-2,4,0,-3,1,8,8,9,-1,-6
432.0,-1,-3,-2,4,0,-3,1,8,8,10,0,-5
433.0,-1,-3,-2,4,0,-3,1,8,8,10,0,-5
434.0,-1,-3,-2,4,0,-3,1,8,8,11,1,-5
435.0,-1,-3,-2,4,0,-3,1,8,8,11,1,-5
436.0,-1,-3,-2,4,0,-3,1,8,8,12,2,-5
437.0,-1,-3,-2,3,0,-3,1,8,8,13,2,-5
438.0,-1,-3,-2,3,0,-3,1,9,8,13,2,-5
439.0,-1,-3,-2,3,0,-3,1,9,8,14,2,-5
440.0,-1,-4,-2,3,0,-4,1,9,9,14,2,-5
441.0,-1,-4,-2,3,0,-4,1,9,9,14,3,-4
442.0,-1,-4,-2,3,0,-4,1,9,9,15,3,-4
443.0,-1,-3,-2,3,0,-4,1,9,9,15,3,-4
444.0,-1,-3,-2,3,0,-3,1,9,9,16,4,-4
445.0,-1,-3,-2,3,0,-3,1,9,10,16,4,-4
446.0,-1,-3,-2,3,0,-3,1,9,10,16,4,-4
447.0,-1,-3,-2,3,0,-3,1,10,10,17,4,-4
448.0,-1,-3,-2,3,0,-3,1,10,10,17,5,-4
449.0,-1,-3,-2,3,0,-3,1,10,10,17,5,-4
450.0,-1,-3,-2,3,0,-3,1,10,10,18,5,-4
451.0,-1,-3,-2,3,0,-3,1,10,10,18,5,-4
452.0,-1,-3,-2,3,0,-3,1,10,10,18,5,-4
453.0,-1,-3,-2,3,0,-3,1,9,10,18,6,-4
454.0,-1,-3,-2,3,0,-3,1,9,10,18,6,-4
455.0,-1,-3,-2,3,0,-3,1,9,10,19,6,-4
456.0,-1,-3,-2,3,0,-3,1,9,10,19,6,-4
457.0,-1,-3,-2,2,0,-3,1,9,10,19,6,-4
458.0,-1,-3,-2,2,0,-3,1,9,10,19,6,-4
459.0,-1,-3,-2,2,0,-3,1,9,10,19,6,-4
460.0,-1,-3,-2,2,0,-3,1,10,10,19,6,-4
461.0,-1,-3,-2,2,0,-3,1,10,10,20,6,-4
462.0,-1,-3,-2,2,0,-3,1,10,10,20,7,-4
463.0,-1,-3,-2,2,0,-3,1,10,10,20,7,-4
464.0,0,-3,-2,2,0,-3,1,10,10,20,7,-4
465.0,0,-3,-2,2,0,-3,1,10,10,20,7,-4
466.0,0,-3,-3,2,0,-3,1,10,11,20,7,-4
467.0,0,-3,-3,2,1,-3,1,10,11,20,7,-4
468.0,0,-3,-3,2,1,-3,1,10,11,20,7,-4
469.0,0,-3,-3,2,1,-3,1,10,11,21,7,-4
470.0,0,-3,-3,2,1,-3,1,10,11,21,7,-4
471.0,0,-3,-3,2,1,-3,1,10,11,21,7,-4
472.0,0,-3,-3,2,1,-3,1,10,11,21,7,-4
473.0,0,-3,-3,2,1,-3,1,10,11,21,7,-4
474.0,0,-3,-3,2,1,-3,1,10,10,21,7,-4
475.0,0,-3,-3,2,1,-3,1,10,10,21,7,-4
476.0,0,-3,-3,2,1,-3,0,10,10,21,7,-4
477.0,0,-3,-3,2,1,-3,0,9,10,21,8,-4
478.0,0,-3,-3,2,1,-3,0,9,10,21,8,-4
479.0,0,-3,-3,2,1,-3,0,9,10,21,8,-4
480.0,0,-3,-3,2,1,-3,0,10,10,21,8,-4
481.0,0,-2,-3,2,1,-3,0,10,10,21,8,-4
482.0,0,-2,-3,2,1,-3,0,10,11,21,8,-4
483.0,0,-2,-3,2,1,-3,0,10,11,21,8,-4
484.0,0,-2,-3,2,1,-3,0,10,11,21,8,-4
485.0,0,-2,-3,2,1,-3,0,10,11,21,8,-4
486.0,0,-2,-3,2,1,-3,0,10,11,21,8,-4
487.0,0,-2,-3,2,1,-3,0,10,11,21,8,-4
488.0,0,-2,-3,2,1,-3,0,10,11,21,8,-4
489.0,0,-2,-3,2,1,-3,0,10,11,21,8,-4
490.0,0,-2,-3,2,1,-3,0,10,11,21,8,-4
491.0,0,-2,-2,2,1,-3,1,10,11,21,8,-4
492.0,0,-2,-2,2,1,-3,1,10,11,21,8,-4
493.0,0,-2,-2,2,1,-3,1,10,11,21,8,-4
494.0,0,-2,-2,2,1,-3,1,10,11,21,8,-4
495.0,0,-2,-2,2,1,-3,1,10,11,22,8,-4
496.0,0,-2,-2,2,1,-3,1,10,11,22,8,-4
497.0,0,-2,-2,2,1,-3,1,10,11,22,8,-4
498.0,0,-2,-2,2,1,-3,0,10,11,22,8,-4
499.0,0,-2,-2,2,1,-3,0,10,11,22,8,-4
500.0,0,-2,-2,2,1,-3,0,10,11,22,8,-4
501.0,0,-2,-2,2,1,-3,0,10,11,22,8,-4
502.0,0,-2,-2,2,1,-3,0,10,11,22,8,-4
503.0,0,-3,-2,2,1,-3,1,10,11,22,8,-4
504.0,0,-3,-2,2,1,-3,1,10,11,22,8,-4
505.0,0,-3,-2,2,1,-3,1,11,12,22,8,-4
506.0,0,-3,-2,2,1,-3,1,11,12,22,8,-3
507.0,-1,-3,-2,2,1,-3,1,11,12,22,8,-3
508.0,-1,-3,-3,2,1,-3,1,11,12,22,8,-3
509.0,-1,-3,-3,2,1,-3,1,11,12,22,8,-3
510.0,-1,-3,-2,2,1,-3,1,11,12,22,9,-3
511.0,-1,-3,-2,2,1,-3,1,11,12,22,9,-3
512.0,-1,-3,-2,2,0,-3,1,11,12,22,9,-3
513.0,0,-2,-2,2,0,-3,1,11,12,22,9,-3
514.0,0,-2,-2,2,0,-3,1,11,12,22,9,-3
515.0,0,-2,-2,2,1,-3,1,11,12,22,9,-3
516.0,0,-2,-2,2,1,-3,1,11,12,22,9,-3
517.0,0,-2,-2,2,1,-3,1,11,12,22,9,-3
518.0,0,-2,-2,2,1,-3,1,11,12,22,9,-3
519.0,0,-2,-2,2,1,-3,1,11,12,22,9,-3
520.0,0,-2,-2,2,1,-3,1,11,12,22,9,-3
521.0,0,-2,-2,2,1,-3,1,11,12,22,9,-3
522.0,0,-2,-2,2,1,-3,1,11,12,23,9,-3
523.0,0,-2,-2,2,1,-3,1,11,12,23,9,-3
524.0,0,-2,-2,2,1,-3,1,11,12,23,9,-3
525.0,0,-2,-2,2,1,-3,1,11,12,23,9,-3
526.0,0,-2,-2,2,1,-3,1,11,12,23,9,-3
527.0,0,-2,-2,2,0,-3,1,11,12,23,9,-3
528.0,0,-2,-2,2,0,-3,1,11,13,23,9,-3
529.0,0,-2,-2,2,1,-3,1,11,13,23,9,-3
530.0,0,-2,-2,2,1,-3,1,11,13,23,9,-3
531.0,0,-2,-2,2,1,-3,1,11,12,23,9,-3
532.0,0,-2,-2,2,1,-3,1,11,12,23,9,-3
533.0,0,-2,-2,2,1,-3,1,11,12,23,9,-3
534.0,0,-2,-2,2,1,-3,1,11,12,23,9,-3
535.0,0,-2,-2,2,1,-3,1,11,12,23,9,-3
536.0,0,-2,-2,2,1,-3,1,11,12,23,10,-3
537.0,0,-2,-2,2,1,-3,1,11,13,23,10,-3
538.0,0,-2,-3,2,1,-3,1,11,13,23,10,-3
539.0,0,-2,-3,2,1,-3,1,11,13,23,10,-3
540.0,0,-2,-3,2,1,-3,1,11,13,23,10,-3
541.0,0,-2,-3,2,1,-3,1,12,13,23,10,-3
542.0,0,-2,-3,2,1,-3,1,12,13,23,10,-3
543.0,0,-2,-3,1,1,-3,1,12,13,24,10,-3
544.0,0,-2,-3,1,1,-3,1,12,13,24,10,-3
545.0,0,-2,-2,1,1,-3,1,12,13,24,10,-3
546.0,0,-2,-2,1,1,-3,1,12,14,24,10,-3
547.0,0,-2,-2,1,1,-3,1,12,14,24,10,-3
548.0,0,-2,-2,1,1,-3,1,12,14,24,10,-3
549.0,0,-2,-2,1,1,-3,1,12,14,24,10,-3
550.0,0,-2,-2,1,1,-3,1,12,14,24,10,-3
551.0,0,-2,-2,1,1,-3,1,12,14,24,10,-3
552.0,0,-2,-2,1,1,-3,1,12,14,24,11,-2
553.0,0,-2,-2,1,1,-2,1,12,14,25,11,-2
554.0,0,-2,-2,1,1,-2,1,12,14,25,11,-2
555.0,0,-2,-2,1,1,-2,1,12,14,25,11,-2
556.0,0,-2,-2,1,1,-2,1,13,14,25,11,-2
557.0,-1,-2,-2,2,0,-2,1,13,14,25,11,-2
558.0,-1,-2,-2,2,0,-2,1,13,15,25,11,-2
559.0,-1,-2,-2,2,0,-2,1,13,15,25,11,-2
560.0,-1,-2,-2,2,0,-2,1,13,15,25,11,-2
561.0,-1,-2,-2,2,0,-3,1,13,15,26,12,-2
562.0,-1,-2,-2,2,0,-3,1,13,15,26,12,-2
563.0,-1,-2,-2,2,0,-3,1,13,15,26,12,-2
564.0,-1,-2,-2,2,0,-3,1,13,15,26,12,-2
565.0,-1,-2,-2,2,0,-3,1,13,15,26,12,-2
566.0,-1,-2,-2,2,0,-2,1,13,16,26,12,-1
567.0,-1,-2,-2,2,0,-2,1,13,16,26,12,-1
568.0,0,-2,-2,2,0,-2,1,13,16,27,12,-1
569.0,0,-2,-2,2,0,-2,1,13,16,27,12,-1
570.0,0,-2,-2,2,0,-2,1,13,16,27,13,-1
571.0,0,-2,-2,2,0,-2,1,13,16,27,13,-2
572.0,0,-2,-2,2,0,-2,1,14,16,27,13,-2
573.0,0,-2,-2,1,0,-2,1,14,16,27,13,-2
574.0,0,-2,-2,1,0,-2,1,14,16,28,13,-2
575.0,0,-2,-2,1,0,-2,1,14,16,28,13,-2
576.0,0,-1,-2,1,0,-2,1,14,17,28,13,-2
577.0,0,-1,-2,1,1,-2,1,14,17,28,13,-2
578.0,0,-1,-2,1,1,-2,1,14,17,28,13,-2
579.0,0,-1,-2,1,1,-2,1,14,17,28,14,-2
580.0,0,-1,-2,1,1,-2,1,14,17,29,14,-2
581.0,0,-1,-2,1,1,-2,1,14,18,29,14,-1
582.0,0,-1,-2,1,1,-2,1,15,18,29,14,-1
583.0,0,-1,-2,1,1,-2,1,15,18,29,14,-1
584.0,0,-1,-2,1,1,-2,1,15,18,30,14,-1
585.0,0,-1,-2,1,1,-2,1,15,19,30,15,-1
586.0,0,-1,-2,1,1,-2,1,15,19,30,15,-1
587.0,0,-1,-2,1,1,-2,1,15,19,30,15,-1
588.0,0,-1,-2,1,1,-2,1,16,19,31,15,-1
589.0,0,-1,-2,1,1,-2,1,16,20,31,15,0
590.0,0,-1,-2,1,1,-2,1,16,20,31,15,0
591.0,0,-1,-2,1,1,-2,1,16,20,31,16,0
592.0,0,-1,-2,1,1,-2,1,16,20,32,16,0
593.0,0,-1,-2,1,1,-2,1,16,20,32,16,0
594.0,0,-1,-2,1,1,-2,1,17,20,32,16,0
595.0,0,-1,-2,1,1,-2,1,17,21,33,17,0
596.0,0,-2,-2,1,1,-2,1,17,21,33,17,0
597.0,0,-2,-2,1,1,-2,1,17,21,33,17,0
598.0,0,-2,-2,1,1,-2,1,17,21,34,17,0
599.0,0,-2,-2,1,1,-2,1,17,21,34,18,0
600.0,0,-2,-2,1,1,-2,1,17,21,34,18,0
601.0,0,-2,-2,1,1,-2,1,17,21,34,18,0
602.0,0,-2,-2,1,1,-2,1,17,22,35,18,1
603.0,0,-2,-2,1,1,-2,1,18,22,35,19,1
604.0,0,-2,-2,1,1,-2,1,18,22,36,19,1
605.0,0,-2,-2,1,1,-2,1,18,22,36,19,1
606.0,0,-2,-2,1,1,-2,1,18,22,36,19,1
607.0,0,-1,-2,1,1,-2,1,18,22,36,19,1
608.0,0,-1,-3,1,1,-2,1,18,23,37,20,1
609.0,0,-1,-3,1,1,-2,1,18,23,37,20,1
610.0,0,-1,-3,1,1,-2,1,18,23,37,20,1
611.0,1,-1,-3,1,1,-2,1,19,23,38,20,1
612.0,1,0,-2,0,1,-2,1,19,23,38,21,1
613.0,1,0,-2,0,1,-2,1,19,23,38,21,1
614.0,1,0,-2,0,1,-2,1,19,23,38,21,1
615.0,1,0,-2,0,1,-2,1,19,24,39,21,1
616.0,1,0,-2,0,1,-2,0,19,24,39,22,1
617.0,1,0,-2,0,1,-2,0,19,24,39,22,1
618.0,1,0,-2,0,1,-2,0,19,24,40,22,1
619.0,1,0,-2,0,1,-2,0,19,24,40,22,1
620.0,1,0,-2,0,1,-2,0,20,24,40,23,2
621.0,1,0,-2,0,1,-2,0,20,24,40,23,2
622.0,1,0,-2,0,1,-2,0,20,24,41,23,2
623.0,1,0,-2,0,1,-2,0,20,25,41,23,2
624.0,1,0,-2,0,1,-2,0,20,25,41,24,2
625.0,1,0,-2,0,1,-2,0,20,25,41,24,3
626.0,1,1,-2,0,1,-2,0,20,25,41,24,3
627.0,1,1,-2,0,1,-2,0,20,25,42,24,3
628.0,2,1,-2,0,2,-2,0,20,25,42,24,3
629.0,2,1,-2,0,2,-2,0,20,25,42,25,3
630.0,2,1,-2,0,2,-1,0,20,25,42,25,3
631.0,2,1,-2,0,2,-1,0,21,25,42,25,4
632.0,2,1,-2,0,2,-1,0,21,25,43,25,4
633.0,3,1,-2,0,2,-1,0,21,25,43,25,4
634.0,3,1,-2,0,2,-1,0,21,25,43,25,4
635.0,3,1,-2,0,2,-1,0,21,25,43,26,4
636.0,3,1,-2,0,2,-1,0,21,25,43,26,4
637.0,3,1,-2,0,2,-1,-1,21,25,43,26,4
638.0,3,1,-2,-1,2,-1,-1,21,25,43,26,4
639.0,3,1,-2,-1,2,-1,-1,20,25,43,26,5
640.0,3,1,-2,-1,2,-1,-1,20,25,43,26,5
641.0,3,1,-2,-1,2,-1,-1,20,25,43,26,5
642.0,3,2,-2,-1,2,-1,-1,20,25,43,26,5
643.0,4,2,-2,-1,2,-1,-1,20,25,43,27,5
644.0,4,2,-2,-1,2,-1,-1,20,25,43,27,5
645.0,4,2,-2,-1,2,-1,-1,20,25,43,27,6
646.0,4,3,-2,-1,2,0,-1,20,25,43,27,6
647.0,3,3,-2,-2,2,0,-2,20,25,43,27,6
648.0,3,3,-2,-2,2,0,-2,20,25,43,27,6
649.0,3,3,-2,-2,2,0,-2,20,25,43,27,6
650.0,3,3,-2,-2,2,0,-2,19,25,43,27,6
651.0,3,3,-1,-2,2,0,-2,19,24,43,27,7
652.0,3,3,-1,-2,2,0,-2,19,24,43,27,7
653.0,3,3,-1,-2,2,0,-3,19,24,43,27,7
654.0,3,4,-1,-2,2,0,-3,18,24,42,27,7
655.0,3,4,-1,-2,2,0,-3,18,23,42,27,7
656.0,3,4,-1,-2,2,0,-3,18,23,42,27,7
657.0,3,4,-1,-2,2,0,-3,18,23,42,27,7
658.0,3,4,-1,-2,2,0,-3,17,22,41,27,7
659.0,3,4,-1,-2,2,0,-4,17,22,41,27,8
660.0,3,4,-1,-2,2,0,-4,17,22,41,27,8
661.0,3,4,-1,-2,2,0,-4,16,21,41,26,8
662.0,4,4,-1,-3,2,0,-4,16,21,40,26,8
663.0,4,4,-1,-3,2,0,-4,15,21,40,26,8
664.0,4,4,-1,-3,2,0,-4,15,20,39,26,8
665.0,4,4,0,-3,2,0,-4,15,19,39,26,8
666.0,4,4,0,-3,2,0,-4,14,19,38,26,8
667.0,4,4,0,-3,2,0,-4,14,18,38,25,8
668.0,4,4,0,-3,2,1,-5,13,18,38,25,8
669.0,4,4,0,-3,2,1,-5,13,17,37,25,8
670.0,4,4,0,-3,2,1,-5,12,16,36,25,8
671.0,4,4,0,-3,2,1,-5,12,16,36,25,8
672.0,4,4,0,-3,2,1,-5,12,15,36,24,8
673.0,4,4,0,-3,2,1,-5,11,15,35,24,8
674.0,4,4,0,-3,2,1,-5,11,14,34,24,8
675.0,4,4,0,-3,2,1,-5,10,14,33,23,8
676.0,4,4,0,-3,2,1,-5,10,13,33,23,8
677.0,4,4,0,-3,2,1,-5,10,13,32,23,8
678.0,4,4,0,-3,2,1,-5,9,12,32,22,8
679.0,3,4,0,-3,2,1,-5,9,12,31,22,8
680.0,3,4,0,-3,2,1,-5,9,12,31,22,8
681.0,3,4,0,-3,2,1,-5,9,11,30,21,8
682.0,3,3,0,-3,2,1,-5,8,11,29,21,7
683.0,3,3,0,-3,2,1,-5,8,10,29,20,7
684.0,3,3,0,-3,2,1,-5,8,10,28,20,7
685.0,3,3,0,-3,2,1,-5,8,9,27,19,7
686.0,2,3,0,-3,2,1,-4,7,9,26,19,7
687.0,2,3,0,-3,1,1,-4,7,9,26,19,7
688.0,2,3,0,-3,1,1,-4,7,8,25,18,7
689.0,2,3,0,-3,1,1,-4,7,8,24,18,7
690.0,2,3,0,-2,1,1,-4,6,7,23,17,6
691.0,2,3,0,-2,1,1,-4,6,7,23,17,6
692.0,2,2,0,-2,1,1,-4,6,7,22,17,6
693.0,1,2,0,-2,1,1,-3,6,6,21,16,6
694.0,1,2,0,-2,1,0,-3,5,6,21,15,6
695.0,1,2,0,-2,1,0,-3,5,6,20,15,6
696.0,1,2,0,-2,1,0,-3,5,5,19,15,5
697.0,1,1,0,-2,1,0,-3,4,5,18,14,5
698.0,1,1,0,-2,1,0,-3,4,4,18,13,5
699.0,1,1,0,-2,1,0,-3,4,4,17,13,5
700.0,1,1,0,-1,1,0,-3,4,4,17,13,5
701.0,1,1,0,-1,1,0,-3,4,4,16,12,4
702.0,1,1,0,-1,1,0,-3,3,4,15,12,4
703.0,1,1,0,-1,1,0,-2,3,3,15,11,4
704.0,1,1,0,-1,1,0,-2,3,3,14,10,4
705.0,1,1,0,-1,1,0,-2,3,3,13,10,4
706.0,1,1,0,-1,1,0,-2,3,3,13,10,4
707.0,1,1,0,-1,1,0,-2,3,3,12,9,4
708.0,1,1,0,-1,1,0,-2,2,3,11,9,3
709.0,1,1,0,-1,1,0,-2,2,3,11,8,3
710.0,1,1,0,-1,1,0,-2,2,3,11,8,3
711.0,1,1,0,-1,1,0,-1,2,3,10,8,3
712.0,1,1,0,-1,1,0,-1,2,2,9,7,3
713.0,1,1,0,-1,1,0,-1,2,2,9,7,2
714.0,1,1,0,-1,1,0,-1,2,2,8,6,2
715.0,1,1,0,-1,1,0,-1,2,2,8,6,2
716.0,1,1,0,-1,1,0,-1,2,2,7,5,2
717.0,0,1,0,-1,0,0,-1,2,2,7,5,2
718.0,0,1,0,-1,0,0,-1,2,2,7,5,2
719.0,0,1,0,0,0,0,-1,2,2,6,5,2
720.0,0,1,0,0,0,0,-1,2,2,6,4,1
721.0,0,1,0,0,0,0,-1,2,2,5,4,1
722.0,0,1,0,0,0,0,-1,2,2,5,4,1
723.0,0,1,0,0,0,0,-1,2,2,5,3,1
724.0,0,1,0,0,0,0,0,1,2,5,3,1
725.0,0,1,0,0,0,0,0,1,2,5,2,1
726.0,0,1,0,0,0,0,0,1,2,4,2,1
727.0,0,1,0,0,0,0,0,1,2,4,2,1
728.0,0,1,0,0,0,0,0,1,2,4,2,1
729.0,0,1,0,0,0,0,0,1,2,3,2,1
730.0,0,1,0,0,0,0,0,1,2,3,2,1
731.0,0,1,0,0,0,0,0,1,2,3,2,1
732.0,0,1,0,0,0,0,0,1,2,2,2,1
733.0,0,1,0,0,0,0,0,1,1,2,1,1
734.0,0,1,0,0,0,0,0,1,1,2,1,1
735.0,0,1,0,0,0,0,0,1,1,2,1,1
736.0,0,1,0,0,0,0,0,1,1,1,1,1
737.0,0,1,0,0,0,0,0,1,1,1,1,1
738.0,0,1,0,0,0,0,0,1,1,1,0,1
739.0,0,1,0,0,0,0,0,1,1,1,0,1
740.0,0,1,0,0,0,0,0,1,1,1,0,1
741.0,0,1,0,0,0,0,0,1,1,1,0,1
742.0,0,1,0,0,0,0,0,1,1,0,0,1
743.0,0,1,0,0,0,0,0,1,1,0,0,1
744.0,0,0,0,0,0,0,0,0,1,0,-1,1
745.0,0,0,0,0,0,0,0,0,1,0,-1,0
746.0,0,0,0,0,0,0,0,0,1,0,-1,0
747.0,0,0,0,0,0,0,0,0,1,-1,-1,0
748.0,0,0,0,0,0,0,0,0,1,-1,-1,0
749.0,0,0,0,0,0,0,0,0,1,-1,-1,0
750.0,0,0,0,0,0,0,0,0,0,-1,-1,0
751.0,0,0,0,0,0,0,0,0,0,-1,-2,0
752.0,0,1,0,0,0,0,0,0,0,-1,-2,0
753.0,0,1,0,0,0,0,0,0,0,-1,-2,0
754.0,0,1,0,0,0,0,0,0,0,-1,-2,0
755.0,0,1,0,0,0,0,0,0,0,-2,-2,0
756.0,0,1,0,0,0,0,0,0,0,-2,-2,0
757.0,-1,1,0,0,0,0,0,0,0,-2,-2,0
758.0,-1,1,0,0,0,0,0,0,0,-2,-2,0
759.0,-1,1,0,0,0,0,0,0,0,-2,-2,0
760.0,-1,1,0,0,0,0,0,0,0,-2,-2,0
761.0,-1,1,0,0,0,0,0,0,0,-2,-2,0
762.0,-1,1,0,0,0,0,0,0,0,-2,-2,0
763.0,-1,1,0,0,0,0,1,0,0,-2,-2,0
764.0,-1,1,0,0,0,0,1,0,0,-2,-2,0
765.0,-1,1,0,0,0,0,1,0,0,-2,-2,0
766.0,-1,1,0,0,0,0,1,0,0,-2,-2,0
767.0,-1,1,0,0,0,0,1,0,0,-2,-2,0
768.0,-1,1,0,0,0,0,1,0,0,-2,-2,0
769.0,-1,1,0,0,0,0,1,0,0,-2,-2,0
770.0,-1,0,0,0,0,0,1,0,0,-2,-2,0
771.0,-1,0,0,1,0,0,1,0,0,-2,-2,0
772.0,-1,0,0,1,0,0,1,0,0,-2,-2,0
773.0,-1,0,0,1,0,0,1,0,0,-2,-2,0
774.0,-1,0,0,1,0,0,1,0,0,-3,-2,0
775.0,-1,0,0,1,0,0,1,0,0,-3,-3,0
776.0,-1,0,0,1,0,0,1,0,0,-3,-3,0
777.0,-1,0,0,1,0,0,1,0,0,-3,-3,0
778.0,-1,0,0,1,0,0,1,0,0,-3,-3,0
779.0,-1,0,0,1,0,0,1,0,0,-3,-3,-1
780.0,-1,0,0,1,0,0,1,0,0,-3,-3,-1
781.0,-1,0,0,1,0,0,1,0,0,-3,-3,-1
782.0,-1,0,0,1,0,0,1,0,0,-3,-3,-1
783.0,-1,0,0,1,0,0,1,0,0,-3,-3,-1
784.0,-1,0,0,1,0,0,1,0,0,-3,-3,-1
785.0,-1,0,0,1,0,0,1,0,0,-3,-3,-1
786.0,-1,0,0,1,0,0,1,0,0,-3,-3,-1
787.0,-1,0,0,1,0,0,1,0,0,-3,-3,0
788.0,-1,0,0,1,0,0,1,0,0,-3,-3,0
789.0,-1,0,0,1,0,0,1,0,0,-3,-3,0
790.0,-1,0,0,1,0,0,2,0,0,-3,-3,0
791.0,-1,0,0,1,0,0,2,0,0,-3,-3,0
792.0,-1,0,0,1,0,0,2,0,0,-3,-3,0
793.0,-1,0,0,1,0,0,2,0,0,-3,-3,0
794.0,-1,0,0,1,0,0,2,0,0,-3,-3,0
795.0,-1,0,0,1,0,0,2,0,0,-3,-3,0
796.0,-1,0,0,1,0,0,2,0,0,-3,-3,0
797.0,-1,0,0,1,0,0,1,0,0,-3,-3,0
798.0,-1,0,0,1,0,0,1,0,0,-3,-3,0
799.0,-1,0,0,1,0,0,1,0,-1,-3,-3,0
800.0,-1,0,0,1,0,0,1,0,-1,-3,-3,0
801.0,-1,0,0,1,0,0,1,0,-1,-3,-3,-1
802.0,-1,0,0,1,0,0,1,0,-1,-3,-3,-1
803.0,-1,0,0,1,0,0,1,0,-1,-3,-3,-1
804.0,-1,0,0,1,0,0,1,0,-1,-3,-3,-1
805.0,-1,0,0,1,0,0,1,0,-1,-3,-3,-1
806.0,-1,0,0,1,0,0,1,0,0,-3,-3,-1
807.0,-1,0,0,1,0,0,1,0,0,-3,-3,-1
808.0,-1,0,0,1,0,0,1,0,0,-3,-3,-1
809.0,-1,0,0,1,0,0,1,0,0,-3,-3,-1
810.0,-1,0,0,1,0,0,1,0,0,-3,-3,-1
811.0,-1,0,0,1,0,0,1,0,0,-3,-3,-1
812.0,-1,0,0,1,0,0,1,0,0,-3,-3,-1
813.0,-1,0,0,1,0,0,1,0,0,-3,-3,-1
814.0,-1,0,0,1,0,0,1,0,0,-3,-3,-1
815.0,-1,0,0,1,0,0,1,0,0,-3,-2,0
816.0,-1,0,0,1,0,0,1,0,0,-3,-2,0
817.0,-1,0,0,1,0,0,1,0,0,-3,-2,0
818.0,-1,0,0,1,0,0,1,0,-1,-3,-2,0
819.0,-1,0,0,1,0,0,1,0,-1,-3,-2,0
820.0,-1,0,0,1,0,0,1,0,-1,-3,-2,0
821.0,-1,0,0,1,0,0,1,0,-1,-3,-2,0
822.0,-1,0,0,1,0,0,1,0,-1,-3,-2,0
823.0,-1,0,0,1,0,0,1,0,-1,-3,-2,0
824.0,-1,0,0,1,0,0,1,0,0,-3,-2,0
825.0,-1,0,0,1,0,0,1,0,0,-3,-2,0
826.0,-1,0,0,1,0,0,1,0,0,-3,-2,0
827.0,-1,0,0,1,0,0,1,0,0,-3,-2,0
828.0,-1,0,0,1,0,0,1,0,0,-3,-2,0
829.0,-1,0,0,1,0,0,1,0,0,-3,-2,0
830.0,-1,0,0,1,0,0,1,0,-1,-3,-2,0
831.0,-1,0,0,1,0,0,1,-1,-1,-3,-2,0
832.0,-1,0,0,1,0,0,1,-1,-1,-3,-2,0
833.0,-1,0,0,1,0,0,1,-1,-1,-3,-2,0
834.0,-1,0,0,1,0,0,1,-1,-1,-3,-2,0
835.0,-1,0,0,1,0,0,1,-1,-1,-3,-2,0
836.0,-1,0,0,1,0,0,1,-1,-1,-3,-2,0
837.0,0,0,0,1,0,0,1,-1,-1,-3,-2,0
838.0,0,0,0,1,0,0,1,-1,-1,-3,-2,0
839.0,0,0,0,1,0,0,1,-1,-1,-3,-2,0
840.0,0,0,0,1,0,0,1,-1,0,-3,-2,0
841.0,0,0,0,1,0,0,0,-1,0,-3,-2,0
842.0,0,0,0,1,0,0,0,-1,0,-3,-2,0
843.0,0,0,0,1,0,0,0,-1,0,-3,-2,0
844.0,0,0,0,1,0,0,0,-1,0,-3,-2,0
845.0,0,0,0,1,0,0,0,-1,0,-3,-2,0
846.0,0,0,0,1,0,0,0,-1,0,-3,-2,0
847.0,0,0,0,1,0,0,0,-1,0,-3,-2,1
848.0,0,0,0,1,0,0,0,-1,0,-3,-2,1
849.0,0,0,0,1,0,0,0,-1,0,-3,-2,1
850.0,0,0,0,1,0,0,0,-1,0,-3,-2,1
851.0,0,0,0,0,0,0,0,-1,0,-3,-2,1
852.0,0,0,0,1,0,0,0,-1,0,-3,-2,1
853.0,0,0,0,1,0,0,0,0,0,-3,-2,1
854.0,0,0,0,1,0,0,0,0,0,-3,-2,1
855.0,-1,0,0,1,0,0,0,0,0,-2,-2,1
856.0,-1,0,0,1,0,0,0,0,0,-2,-2,1
857.0,-1,0,0,1,0,0,0,0,0,-2,-2,1
858.0,0,0,0,1,0,0,0,0,0,-2,-2,1
859.0,0,0,0,1,0,0,0,0,0,-2,-2,1
860.0,0,0,0,0,0,0,0,0,0,-2,-2,1
861.0,0,0,0,0,0,0,0,0,0,-2,-1,1
862.0,0,0,0,0,0,0,0,0,0,-2,-1,1
863.0,0,0,0,0,0,0,0,0,0,-2,-1,1
864.0,0,0,0,0,0,0,0,0,0,-2,-1,1
865.0,0,0,0,0,0,0,0,0,0,-2,-1,1
866.0,0,0,0,0,0,0,0,0,0,-2,-1,1
867.0,0,0,0,0,0,0,0,0,0,-2,-1,1
868.0,0,0,0,0,0,0,0,0,0,-2,-1,1
869.0,0,0,0,0,0,0,0,0,0,-2,-1,1
870.0,0,0,0,0,0,0,0,0,0,-2,-1,1
871.0,0,0,0,0,0,0,0,0,0,-2,-1,1
872.0,0,0,0,0,0,0,0,0,0,-2,-1,1
873.0,0,0,0,0,0,0,0,0,0,-2,-1,1
874.0,0,0,0,0,0,0,0,0,0,-2,-1,1
875.0,0,0,0,0,0,0,0,0,0,-2,-1,1
876.0,0,0,0,0,0,0,0,0,0,-2,-1,1
877.0,0,1,0,0,0,0,0,0,0,-2,-1,1
878.0,0,1,0,0,0,0,0,0,0,-2,-1,1
879.0,0,1,0,0,0,0,0,0,0,-2,-1,1
880.0,0,1,0,0,0,0,0,0,0,-2,-1,1
881.0,0,1,0,0,0,0,0,0,0,-1,-1,1
882.0,0,1,0,0,0,0,0,0,0,-1,-1,1
883.0,0,1,0,0,0,0,0,0,0,-1,-1,1
884.0,0,1,0,0,0,0,0,0,1,-1,-1,1
885.0,0,1,0,0,0,0,0,0,1,-1,-1,1
886.0,0,1,0,0,0,0,0,0,1,-1,-1,1
887.0,0,1,0,0,0,0,0,0,1,-1,-1,1
888.0,0,1,0,0,0,0,0,0,1,-1,-1,1
889.0,0,1,0,0,0,0,0,0,1,-1,-1,1
890.0,0,1,0,0,0,0,0,0,1,-1,-1,1
891.0,0,1,0,0,0,0,0,0,1,-1,-1,1
892.0,0,1,0,0,0,0,0,0,1,-1,-1,1
893.0,0,1,0,0,0,0,0,0,1,-1,-1,1
894.0,0,1,0,0,0,0,0,0,1,-1,-1,1
895.0,0,1,0,0,0,0,0,0,1,-1,-1,1
896.0,0,1,0,0,0,0,0,0,1,-1,-1,1
897.0,0,1,0,0,0,0,0,0,1,-1,-1,1
898.0,0,1,0,0,0,0,0,0,1,-1,-1,1
899.0,0,1,0,0,0,0,0,0,1,-1,-1,1
900.0,0,1,0,0,0,0,0,0,1,-1,-1,1
901.0,0,1,0,0,0,0,0,0,1,-1,-1,1
902.0,0,1,0,0,0,0,0,0,1,-1,-1,1
903.0,0,1,0,0,0,0,0,0,1,-1,-1,1
904.0,0,1,0,0,0,0,0,1,1,-1,-1,1
905.0,0,1,0,0,0,0,0,1,1,-1,-1,1
906.0,0,1,0,0,0,0,0,1,1,-1,-1,1
907.0,0,1,0,0,0,0,0,1,1,-1,-1,1
908.0,0,1,0,0,0,0,0,1,1,-1,-1,1
909.0,0,1,0,0,0,0,0,1,1,-1,-1,1
910.0,0,1,0,0,0,0,0,1,1,-1,-1,1
911.0,0,1,0,0,0,0,0,1,1,-1,-1,1
912.0,0,1,0,0,0,0,0,1,1,-1,-1,1
913.0,0,1,0,0,0,0,0,1,1,-1,-1,1
914.0,0,1,0,0,0,0,0,1,1,-1,-1,1
915.0,0,1,0,0,0,0,0,1,1,-1,-1,1
916.0,0,1,0,0,0,0,0,1,1,-1,-1,1
917.0,0,1,0,0,0,0,0,1,1,-1,-1,1
918.0,0,1,0,0,0,0,0,1,1,-1,-1,1
919.0,0,1,0,0,0,0,0,1,1,-1,-1,1
920.0,0,1,0,0,0,0,0,1,1,-1,-1,1
921.0,0,1,0,0,0,0,0,1,1,-1,-1,1
922.0,0,1,0,0,0,0,0,1,1,-1,-1,1
923.0,0,1,0,0,0,0,0,1,1,-1,-1,1
924.0,0,1,0,0,0,0,0,1,1,-1,-1,1
925.0,0,1,0,0,0,0,0,1,1,-1,-1,1
926.0,0,1,0,0,0,0,0,1,1,-1,-1,1
927.0,0,1,0,0,0,0,0,1,1,-1,-1,1
928.0,0,1,0,0,0,0,0,1,1,-1,-1,1
929.0,0,1,0,0,0,0,0,1,1,-1,-1,1
930.0,0,1,0,0,0,0,0,1,1,-1,-1,1
931.0,0,1,0,0,0,0,0,1,1,-1,-1,1
932.0,0,1,0,0,0,0,0,1,1,-1,-1,1
933.0,0,1,0,0,0,0,0,1,1,-1,-1,1
934.0,0,1,0,0,0,0,0,1,1,-1,-1,1
935.0,0,1,0,0,0,0,0,1,1,-1,-1,1
936.0,0,1,0,0,0,0,0,1,1,-1,-1,1
937.0,0,1,0,0,0,0,0,1,1,-1,-1,1
938.0,0,1,0,0,0,0,0,1,1,-1,-1,1
939.0,0,1,0,0,0,0,0,1,1,-1,-1,1
940.0,0,1,0,0,0,0,0,1,1,-1,-1,1
941.0,0,1,0,0,0,0,0,1,1,-1,-1,1
942.0,0,1,0,0,0,0,0,1,1,0,-1,1
943.0,0,1,0,0,0,0,0,1,1,0,-1,1
944.0,0,1,0,0,0,0,0,1,1,0,-1,1
945.0,0,1,0,0,0,0,0,1,1,0,-1,1
946.0,0,1,0,0,0,0,0,1,1,0,-1,1
947.0,0,1,0,0,0,0,0,1,1,0,-1,1
948.0,0,1,0,0,0,0,0,1,1,0,-1,1
949.0,0,1,0,0,0,0,0,1,1,0,-1,1
950.0,0,1,0,0,0,0,0,1,1,0,-1,1
951.0,0,1,0,0,0,0,0,1,1,0,-1,1
952.0,0,1,0,0,0,0,0,1,1,0,-1,1
953.0,0,1,0,0,0,0,0,1,1,0,-1,1
954.0,0,1,0,0,0,0,0,1,1,0,-1,1
955.0,0,1,0,0,0,0,0,1,1,0,-1,1
956.0,0,1,0,0,0,0,0,1,1,0,-1,1
957.0,0,1,0,0,0,0,0,1,1,0,-1,1
958.0,0,1,0,0,0,0,0,1,1,0,-1,1
959.0,0,1,0,0,0,0,0,1,1,0,-1,1
960.0,0,1,0,0,0,0,0,1,1,0,-1,1
961.0,0,1,0,0,0,0,0,1,1,0,-1,1
962.0,0,1,0,0,0,0,0,1,1,0,-1,1
963.0,0,1,0,0,0,0,0,1,1,0,-1,1
964.0,0,1,0,0,0,0,0,1,1,0,-1,1
965.0,-1,1,0,0,0,0,0,1,1,0,-1,1
966.0,-1,1,0,0,0,0,0,1,1,0,-1,1
967.0,-1,1,0,0,0,0,0,1,1,0,-1,1
968.0,-1,1,0,0,0,0,0,1,1,0,-1,1
969.0,-1,1,0,0,0,0,0,1,1,0,-1,1
970.0,-1,1,0,0,0,0,0,1,1,0,-1,1
971.0,-1,1,0,0,0,0,0,1,1,0,-1,1
972.0,-1,1,0,0,0,0,0,1,1,0,-1,1
973.0,-1,1,0,0,0,0,0,1,1,0,-1,1
974.0,0,1,0,0,0,0,0,1,1,0,-1,1
975.0,0,1,0,0,0,0,0,1,1,0,-1,1
976.0,0,1,0,0,0,0,0,1,1,0,-1,1
977.0,0,1,0,0,0,0,0,1,1,0,-1,1
978.0,0,1,0,0,0,0,0,1,1,0,-1,1
979.0,0,1,0,0,0,0,0,1,1,0,-1,1
980.0,0,1,0,0,0,0,0,1,1,0,-1,1
981.0,0,1,0,0,0,0,0,1,0,0,-1,1
982.0,0,1,0,0,0,0,0,1,0,0,-1,1
983.0,0,1,0,0,0,0,0,1,0,0,-1,1
984.0,0,1,0,0,0,0,0,1,0,0,-1,1
985.0,0,1,0,0,0,0,0,1,0,0,-1,1
986.0,0,1,0,0,0,0,0,1,1,0,-1,1
987.0,0,1,0,0,0,0,0,1,1,0,-1,1
988.0,0,1,0,0,0,0,0,1,1,0,-1,1
989.0,-1,1,0,0,0,0,0,1,1,0,-1,1
990.0,-1,1,0,0,0,0,0,1,1,0,-1,1
991.0,-1,1,0,0,0,0,0,0,0,0,-1,1
992.0,-1,0,0,0,0,0,0,0,0,0,-1,1
993.0,-1,0,0,0,0,0,0,0,0,0,-1,1
994.0,-1,0,0,0,0,0,0,0,0,0,-1,1
995.0,-1,0,0,0,0,0,0,0,0,0,-1,1
996.0,-1,0,0,0,0,0,0,0,0,0,-1,1
997.0,-1,0,0,1,0,0,0,0,0,0,-1,0
998.0,-1,0,0,1,0,0,0,0,0,0,-1,0
999.0,-1,0,0,1,0,0,0,0,0,0,-1,0
1000.0,-1,0,0,1,0,0,0,0,0,0,-1,0
1001.0,-1,0,0,1,0,0,0,0,0,0,-1,0
1002.0,-1,0,0,1,0,0,0,0,0,0,-1,1
1003.0,-1,0,0,1,0,0,0,0,0,0,-1,1
1004.0,-1,0,0,1,0,0,0,0,0,0,-1,1
1005.0,-1,0,0,1,0,0,0,0,0,0,-1,1
1006.0,-1,0,0,1,0,0,0,0,0,0,-1,1
1007.0,-1,0,0,1,0,0,0,0,0,0,-1,1
1008.0,-1,0,0,1,0,0,0,0,0,0,-1,1
1009.0,-1,0,0,1,0,0,0,0,0,0,-1,1
1010.0,-1,0,0,1,0,0,0,0,0,0,-1,1
1011.0,-1,0,0,1,0,0,0,0,0,0,-1,1
1012.0,-1,0,0,1,0,0,0,0,0,0,-1,1
1013.0,-1,0,0,1,0,0,0,0,0,0,-1,1
1014.0,-1,0,0,1,0,0,0,0,0,0,-1,1
1015.0,-1,0,0,1,0,0,0,0,0,0,-1,1
1016.0,-1,0,0,1,0,0,0,0,0,0,-1,1
1017.0,-1,0,0,1,0,0,0,0,0,0,-1,1
1018.0,-1,0,0,1,0,0,0,0,0,0,-1,1
1019.0,-1,0,0,1,0,0,0,0,0,0,-1,1
1020.0,-1,0,0,1,0,0,0,0,0,0,-1,1
1021.0,-1,0,0,1,0,0,0,0,0,0,-1,1
1022.0,-1,0,0,1,0,0,0,0,0,0,-1,1
1023.0,-1,0,0,1,0,0,0,0,0,0,-1,1
1024.0,-1,0,0,1,0,0,0,0,0,0,-1,1
1025.0,-1,0,0,1,0,0,0,0,0,0,-1,1
1026.0,-1,0,0,1,0,0,0,0,0,0,-1,1
1027.0,-1,0,0,1,0,0,0,0,0,0,-1,1
1028.0,-1,0,0,1,0,0,0,0,0,0,-1,1
1029.0,-1,0,0,1,0,0,0,0,0,0,-1,1
1030.0,-1,0,0,1,0,0,0,0,0,0,-1,1
1031.0,-1,1,0,1,0,0,0,1,0,1,-1,1
1032.0,-1,1,0,1,0,0,0,1,0,1,-1,1
1033.0,-1,0,0,1,0,0,0,1,0,1,-1,1
1034.0,-1,0,0,1,0,0,0,1,0,1,-1,1
1035.0,-1,0,0,1,0,0,0,1,0,1,-1,1
1036.0,-2,0,0,1,0,0,0,1,0,1,-1,1
1037.0,-2,0,0,1,0,0,0,1,0,1,-1,1
1038.0,-2,0,0,1,-1,0,0,1,0,1,-1,1
1039.0,-2,0,0,1,-1,0,0,1,0,1,-1,1
1040.0,-2,0,0,1,-1,0,0,1,0,1,-1,1
1041.0,-2,0,0,1,-1,0,0,1,0,1,-1,1
1042.0,-2,0,0,1,-1,0,0,1,0,1,-1,1
1043.0,-2,0,0,1,-1,0,0,1,0,1,-1,1
1044.0,-2,0,0,1,-1,0,0,1,0,1,-1,1
1045.0,-2,0,0,1,-1,0,0,1,0,1,-1,1
1046.0,-2,0,0,1,-1,0,0,1,0,1,-1,1
1047.0,-2,0,0,1,-1,0,0,1,0,1,-1,1
1048.0,-1,0,0,1,-1,0,0,1,0,1,-1,1
1049.0,-1,0,0,1,-1,0,0,1,0,1,-1,1
1050.0,-1,0,0,1,-1,0,0,1,0,1,-1,1
1051.0,-1,0,0,1,-1,0,0,1,0,1,-1,1
1052.0,-1,0,0,1,-1,0,0,1,0,1,-1,1
1053.0,-1,0,0,1,-1,0,0,1,0,1,-1,1
1054.0,-1,0,0,1,-1,0,0,1,0,1,-1,1
1055.0,-1,0,0,1,-1,0,0,1,0,1,-1,1
1056.0,-1,0,0,1,-1,0,0,1,0,1,-1,1
1057.0,-1,0,0,1,-1,0,0,1,0,1,-1,1
1058.0,-1,0,0,1,0,0,0,1,0,1,-1,1
1059.0,-1,0,0,1,0,0,0,1,0,1,-1,1
1060.0,-1,0,0,1,0,0,0,1,0,1,-1,1
1061.0,-1,0,0,1,0,0,0,1,0,1,-1,1
1062.0,-1,0,0,1,0,0,0,0,0,1,-1,1
1063.0,-1,0,0,1,0,0,0,0,0,1,-1,0
1064.0,-1,0,0,1,0,0,0,0,0,1,-1,0
1065.0,-1,0,0,1,0,0,0,0,0,1,-1,0
1066.0,-1,0,0,1,0,0,0,0,0,1,-1,0
1067.0,-1,0,0,1,0,0,0,0,0,1,-1,1
1068.0,-1,0,0,1,0,0,0,1,0,1,-1,1
1069.0,-1,1,0,1,0,0,0,1,0,1,-1,1
1070.0,-1,1,0,1,0,0,0,1,0,1,-1,1
1071.0,-1,1,0,1,0,0,0,1,0,1,-1,1
1072.0,-1,1,0,1,0,0,0,1,0,1,-1,1
1073.0,-1,1,0,1,0,0,0,1,0,1,-1,1
1074.0,-1,1,0,1,-1,0,0,1,0,1,0,1
1075.0,-1,1,0,1,-1,0,0,1,0,1,0,1
1076.0,-1,1,0,1,-1,0,0,1,0,1,0,1
1077.0,-1,1,0,1,-1,0,0,1,0,1,0,1
1078.0,-1,1,0,1,-1,0,0,1,0,1,0,1
1079.0,-1,1,0,1,-1,0,0,1,0,1,0,1
1080.0,-1,1,0,1,-1,0,0,1,0,1,0,1
1081.0,-1,1,0,1,0,0,0,1,0,1,0,1
1082.0,-1,1,0,1,0,0,0,1,0,1,0,1
1083.0,0,1,0,1,0,0,0,1,0,1,0,1
1084.0,0,1,0,1,0,0,0,1,0,1,0,1
1085.0,0,1,0,1,0,0,0,1,0,1,0,1
1086.0,-1,1,0,1,0,0,0,1,0,1,0,1
1087.0,-1,1,0,1,0,0,0,1,0,1,0,1
1088.0,-1,1,0,0,0,0,0,1,0,1,0,1
1089.0,0,1,0,0,0,0,0,1,0,1,0,1
1090.0,0,1,0,0,0,0,0,1,0,1,0,1
1091.0,0,1,0,0,0,0,0,1,0,1,0,1
1092.0,0,1,0,0,0,0,0,1,0,1,0,1
1093.0,0,1,0,0,0,0,0,1,0,1,0,1
1094.0,0,1,0,0,0,0,0,1,0,1,0,1
1095.0,0,1,0,0,0,0,0,1,0,1,0,1
1096.0,0,1,0,0,0,0,0,1,0,1,0,1
1097.0,0,1,0,0,0,0,0,1,0,1,0,1
1098.0,0,1,0,0,0,0,0,1,0,1,0,1
1099.0,0,1,0,0,0,0,0,1,-1,1,0,0
1100.0,0,-2,0,0,0,-1,0,-1,-8,1,-1,-3
1101.0,1,-3,-1,0,0,-1,0,-2,-11,-1,-2,-4
1102.0,1,-3,-1,0,0,-1,0,-2,-7,-1,-2,-4
1103.0,1,-1,-1,0,0,-1,0,0,0,-1,-2,-1
1104.0,0,1,-1,0,0,-1,0,0,0,0,-1,1
1105.0,0,1,0,0,0,0,0,1,1,0,-1,1
1106.0,0,1,0,0,0,0,0,1,2,1,-1,1
1107.0,0,1,0,0,0,0,0,1,3,1,0,1
1108.0,0,2,0,0,0,0,0,2,3,1,0,1
1109.0,0,2,0,0,0,0,0,2,2,1,0,1
1110.0,0,2,0,0,0,0,0,2,2,2,0,1
1111.0,0,2,0,0,0,0,0,2,2,2,0,1
1112.0,0,2,0,0,0,0,0,1,2,2,0,1
1113.0,0,2,0,0,0,0,0,1,2,2,0,1
1114.0,0,2,0,0,0,0,0,1,1,2,1,1
1115.0,0,1,0,0,0,0,0,1,1,2,1,1
1116.0,0,1,0,0,0,0,0,1,1,2,1,1
1117.0,0,1,0,0,0,0,0,1,1,2,1,1
1118.0,0,1,0,0,0,0,0,1,0,2,1,1
1119.0,0,1,0,0,0,0,0,1,0,2,1,1
1120.0,0,1,0,0,0,0,0,1,0,2,1,1
1121.0,0,1,0,0,0,0,0,1,0,2,1,1
1122.0,0,1,0,0,0,0,0,1,0,2,1,1
1123.0,0,1,0,0,0,0,0,1,0,2,1,1
1124.0,0,1,0,0,0,0,0,1,0,2,1,1
1125.0,0,1,0,0,0,0,0,1,0,2,1,1
1126.0,0,1,0,0,0,0,0,1,1,2,1,1
1127.0,0,1,0,0,0,0,0,1,1,2,1,1
1128.0,0,1,0,0,0,0,0,1,1,2,1,1
1129.0,0,1,0,0,0,0,0,2,2,2,1,1
1130.0,0,1,0,0,0,0,0,2,2,2,1,1
1131.0,0,1,0,0,0,0,1,2,2,3,1,1
1132.0,0,1,0,0,0,0,1,2,2,3,1,0
1133.0,0,1,0,0,0,0,1,2,2,3,1,0
1134.0,0,1,0,0,0,0,1,2,2,3,1,0
1135.0,0,1,0,0,0,0,1,2,3,3,0,0
1136.0,0,1,0,0,0,0,1,2,3,3,0,0
1137.0,0,1,0,0,0,0,1,3,3,3,0,-1
1138.0,0,1,0,0,0,0,1,3,4,3,0,-1
1139.0,0,1,0,0,0,0,2,3,4,3,0,-1
1140.0,0,1,0,0,0,0,2,3,5,3,0,-1
1141.0,0,1,0,0,0,0,2,4,5,3,0,-2
1142.0,0,1,0,0,0,0,2,4,5,4,0,-2
1143.0,0,1,0,0,0,0,2,4,6,4,0,-2
1144.0,0,1,0,0,0,0,2,5,6,4,0,-2
1145.0,0,1,0,0,0,0,2,5,6,4,0,-2
1146.0,0,0,0,0,0,0,2,5,6,5,0,-2
1147.0,0,0,0,0,0,0,3,5,6,5,0,-2
1148.0,0,0,0,0,0,0,2,5,6,5,0,-2
1149.0,0,1,0,0,0,0,2,5,6,5,0,-2
1150.0,0,1,0,0,0,0,2,5,6,5,1,-2
1151.0,0,1,0,0,0,0,2,5,6,6,1,-2
1152.0,0,1,0,0,0,0,2,5,6,6,1,-1
1153.0,0,1,0,0,0,0,2,4,5,7,2,-1
1154.0,0,1,0,0,0,0,2,4,5,7,2,-1
1155.0,0,1,0,0,0,0,1,4,5,8,2,0
1156.0,0,1,0,0,0,0,1,3,4,8,3,0
1157.0,0,1,0,0,0,0,1,3,4,9,3,1
1158.0,0,1,0,0,0,0,1,2,4,9,4,1
1159.0,0,2,0,0,0,0,0,2,3,10,4,1
1160.0,0,2,0,0,0,0,0,2,3,10,5,1
1161.0,1,3,0,0,0,0,0,1,2,11,6,2
1162.0,1,3,0,0,0,0,0,0,2,11,7,2
1163.0,1,4,0,0,0,0,0,-1,1,12,7,3
1164.0,1,4,0,-1,0,0,-1,-2,1,12,8,4
1165.0,1,5,0,-1,0,1,-1,-3,0,13,9,5
1166.0,1,6,1,-1,0,1,-2,-4,-1,13,9,5
1167.0,2,6,1,-1,0,1,-2,-6,-2,13,10,6
1168.0,2,7,1,-1,0,2,-3,-7,-3,13,10,7
1169.0,2,7,1,-2,0,2,-3,-8,-5,13,11,8
1170.0,2,8,2,-2,0,2,-4,-10,-7,12,11,8
1171.0,2,8,2,-2,0,3,-4,-11,-8,12,11,9
1172.0,2,9,2,-2,0,3,-5,-12,-11,11,11,10
1173.0,3,9,2,-3,0,3,-5,-13,-14,9,11,10
1174.0,3,9,2,-3,0,3,-6,-15,-17,8,10,11
1175.0,3,9,3,-3,0,4,-6,-16,-20,6,9,11
1176.0,3,9,3,-3,0,4,-7,-18,-24,3,8,12
1177.0,3,9,3,-3,0,4,-7,-21,-27,1,7,12
1178.0,3,9,3,-4,0,4,-8,-22,-31,-1,6,13
1179.0,3,9,3,-4,0,4,-8,-24,-35,-5,5,14
1180.0,2,10,4,-4,0,5,-8,-27,-38,-8,4,15
1181.0,2,10,4,-4,-1,5,-9,-29,-41,-11,3,15
1182.0,2,10,4,-4,-1,5,-9,-31,-43,-14,2,16
1183.0,2,10,4,-4,-1,5,-9,-32,-45,-17,2,17
1184.0,2,10,5,-4,-1,6,-10,-34,-47,-21,1,18
1185.0,1,10,5,-4,-1,6,-10,-36,-49,-24,0,19
1186.0,1,11,5,-4,-1,6,-10,-38,-51,-28,-2,20
1187.0,1,11,5,-5,-2,6,-11,-39,-52,-31,-3,21
1188.0,1,11,6,-5,-2,7,-11,-40,-53,-34,-4,22
1189.0,1,12,6,-5,-2,7,-11,-41,-54,-37,-5,23
1190.0,1,12,6,-5,-2,7,-12,-43,-55,-39,-6,24
1191.0,0,12,7,-5,-2,8,-12,-43,-56,-41,-7,25
1192.0,0,12,7,-5,-3,8,-13,-44,-56,-45,-7,26
1193.0,0,13,7,-5,-3,8,-13,-45,-56,-46,-8,27
1194.0,0,13,8,-5,-3,8,-13,-45,-56,-48,-9,28
1195.0,0,13,8,-5,-3,9,-14,-45,-56,-50,-10,28
1196.0,0,13,8,-5,-3,9,-14,-45,-55,-52,-11,29
1197.0,0,13,8,-5,-3,9,-14,-45,-55,-54,-12,29
1198.0,1,13,8,-5,-3,9,-14,-45,-54,-56,-13,30
1199.0,1,13,9,-5,-3,9,-15,-44,-53,-57,-14,30
1200.0,1,13,9,-6,-3,9,-15,-44,-52,-59,-15,30
1201.0,1,13,9,-6,-4,10,-15,-44,-52,-60,-15,31
1202.0,1,13,9,-6,-4,10,-15,-43,-51,-61,-16,31
1203.0,1,14,9,-6,-4,10,-15,-42,-50,-62,-17,31
1204.0,1,14,9,-6,-4,10,-15,-42,-50,-63,-18,31
1205.0,1,14,9,-6,-4,10,-15,-41,-49,-64,-19,30
1206.0,1,14,10,-6,-4,10,-14,-41,-48,-65,-20,30
1207.0,1,14,10,-6,-4,10,-14,-40,-48,-66,-21,30
1208.0,1,14,10,-6,-4,10,-14,-39,-47,-66,-22,29
1209.0,1,14,10,-6,-4,11,-13,-39,-46,-67,-23,28
1210.0,1,14,10,-6,-4,11,-13,-38,-46,-68,-24,28
1211.0,1,13,10,-6,-4,11,-13,-37,-45,-68,-25,27
1212.0,1,13,10,-6,-4,11,-12,-37,-44,-69,-26,25
1213.0,1,13,10,-6,-4,11,-12,-36,-43,-69,-27,24
1214.0,1,12,10,-6,-4,10,-11,-35,-42,-69,-28,23
1215.0,1,12,10,-6,-4,10,-11,-34,-40,-69,-29,21
1216.0,1,11,10,-6,-4,10,-10,-33,-39,-69,-30,20
1217.0,1,11,9,-6,-4,10,-9,-31,-37,-69,-31,18
1218.0,1,11,9,-6,-4,10,-9,-30,-35,-69,-32,17
1219.0,0,10,9,-6,-4,10,-8,-29,-33,-68,-32,16
1220.0,0,10,9,-5,-4,10,-7,-27,-31,-68,-33,14
1221.0,0,10,9,-5,-4,10,-6,-26,-28,-67,-34,13
1222.0,0,9,9,-5,-4,9,-5,-24,-26,-66,-34,12
1223.0,0,9,9,-5,-4,9,-4,-23,-24,-65,-35,10
1224.0,0,9,9,-5,-4,9,-3,-21,-21,-64,-35,8
1225.0,0,8,8,-5,-4,9,-2,-20,-17,-63,-35,7
1226.0,0,8,8,-5,-4,9,-1,-18,-14,-62,-35,5
1227.0,0,7,8,-4,-4,8,0,-16,-12,-60,-36,4
1228.0,-1,7,8,-4,-4,8,0,-15,-10,-59,-36,2
1229.0,-1,6,8,-4,-4,8,2,-14,-8,-58,-36,1
1230.0,-1,5,8,-3,-4,8,3,-12,-6,-57,-36,0
1231.0,-2,5,7,-3,-4,7,4,-11,-4,-55,-36,-2
1232.0,-2,4,7,-3,-4,7,5,-10,-3,-54,-36,-3
1233.0,-2,3,7,-2,-4,7,6,-8,-1,-52,-36,-4
1234.0,-3,3,7,-2,-4,6,7,-7,0,-50,-35,-6
1235.0,-3,2,6,-2,-4,6,8,-6,2,-49,-35,-7
1236.0,-3,1,6,-1,-4,6,8,-5,2,-48,-35,-8
1237.0,-4,1,6,-1,-4,5,9,-4,2,-46,-35,-9
1238.0,-4,1,6,-1,-4,5,10,-3,2,-45,-34,-10
1239.0,-4,1,6,0,-4,5,10,-2,1,-43,-34,-11
1240.0,-4,0,5,0,-4,4,11,-1,1,-42,-34,-12
1241.0,-5,0,5,0,-4,4,11,0,0,-41,-34,-13
1242.0,-5,0,5,0,-4,4,12,0,-1,-39,-33,-13
1243.0,-5,-1,5,0,-4,3,12,1,-2,-38,-33,-14
1244.0,-5,-1,5,0,-4,3,12,1,-3,-37,-32,-14
1245.0,-6,-1,4,1,-4,3,12,1,-4,-35,-32,-15
1246.0,-6,-2,4,1,-4,2,12,1,-5,-34,-31,-15
1247.0,-6,-2,4,1,-4,2,12,1,-7,-33,-31,-16
1248.0,-6,-3,4,2,-4,2,12,1,-9,-32,-30,-16
1249.0,-6,-3,4,2,-4,1,11,1,-10,-31,-30,-16
1250.0,-6,-3,4,2,-4,1,11,0,-11,-30,-29,-16
1251.0,-6,-3,3,2,-4,1,11,-1,-12,-29,-29,-17
1252.0,-6,-3,3,3,-4,1,10,-1,-13,-27,-28,-17
1253.0,-6,-4,3,3,-4,0,10,-2,-14,-26,-27,-17
1254.0,-6,-4,3,3,-4,0,9,-3,-15,-25,-26,-17
1255.0,-6,-4,2,3,-4,0,8,-3,-16,-24,-26,-17
1256.0,-6,-4,2,3,-3,0,8,-4,-16,-23,-25,-16
1257.0,-5,-4,2,3,-3,0,7,-4,-16,-22,-25,-16
1258.0,-5,-4,2,4,-3,0,7,-4,-16,-21,-23,-16
1259.0,-5,-4,2,4,-3,0,7,-4,-15,-20,-23,-16
1260.0,-5,-4,1,4,-3,0,6,-4,-15,-19,-22,-16
1261.0,-5,-4,1,4,-3,0,6,-4,-14,-18,-21,-15
1262.0,-4,-4,1,4,-3,-1,6,-3,-13,-17,-21,-15
1263.0,-4,-4,1,4,-2,-1,5,-3,-12,-16,-20,-15
1264.0,-4,-4,0,4,-2,-1,5,-2,-11,-15,-19,-14
1265.0,-4,-4,0,4,-2,-1,5,-2,-10,-14,-18,-14
1266.0,-3,-4,0,4,-2,-1,4,-1,-8,-12,-17,-13
1267.0,-3,-4,0,4,-2,-2,4,-1,-7,-11,-16,-13
1268.0,-3,-4,0,4,-2,-2,4,0,-6,-10,-16,-13
1269.0,-3,-4,0,4,-2,-2,4,1,-5,-9,-15,-12
1270.0,-2,-3,0,4,-1,-2,3,1,-4,-8,-14,-12
1271.0,-2,-3,0,4,-1,-2,3,2,-3,-7,-13,-11
1272.0,-2,-3,0,4,-1,-2,3,2,-2,-6,-12,-11
1273.0,-2,-3,0,3,-1,-2,3,2,-1,-4,-11,-10
1274.0,-1,-3,0,3,-1,-2,3,3,1,-3,-10,-10
1275.0,-1,-3,0,3,-1,-2,3,3,1,-2,-9,-10
1276.0,-1,-2,-1,3,-1,-2,2,4,2,-1,-9,-9
1277.0,-1,-2,-1,3,0,-2,2,4,2,0,-7,-9
1278.0,-1,-2,-1,3,0,-2,2,5,2,1,-7,-8
1279.0,-1,-2,-1,3,0,-2,2,5,3,2,-6,-8
1280.0,-1,-2,-1,3,0,-2,2,6,4,3,-5,-8
1281.0,0,-2,-1,3,0,-2,2,6,5,5,-4,-7
1282.0,0,-2,-1,3,0,-2,2,6,5,5,-4,-7
1283.0,0,-2,-1,3,0,-2,2,7,6,5,-3,-7
1284.0,0,-2,-1,2,0,-2,2,7,6,6,-2,-7
1285.0,0,-1,-1,2,0,-2,2,8,7,7,-2,-6
1286.0,0,-1,-1,2,0,-2,2,8,7,8,-1,-6
1287.0,0,-1,-1,2,0,-2,2,8,7,8,-1,-6
1288.0,0,-1,-1,2,0,-2,2,8,7,9,0,-6
1289.0,0,-1,-2,2,0,-2,2,9,8,10,1,-6
1290.0,0,-1,-2,2,0,-2,2,9,8,11,1,-6
1291.0,0,-1,-2,2,0,-2,2,9,8,11,2,-6
1292.0,0,-1,-2,2,0,-2,2,9,8,12,2,-5
1293.0,0,-1,-2,1,0,-2,2,9,8,13,2,-5
1294.0,0,-1,-2,1,0,-2,2,9,8,13,2,-5
1295.0,0,-1,-2,1,0,-2,2,9,8,14,2,-5
1296.0,0,-1,-2,1,0,-2,2,9,8,14,3,-5
1297.0,0,-1,-2,1,0,-2,2,9,8,15,3,-5
1298.0,0,-1,-2,1,0,-2,2,9,8,15,3,-5
1299.0,0,-1,-2,1,0,-2,2,10,8,15,4,-5
1300.0,0,-1,-2,1,1,-2,2,10,9,16,4,-5
1301.0,0,-1,-2,1,1,-2,2,10,9,16,4,-5
1302.0,0,-1,-2,1,1,-2,2,10,9,17,5,-5
1303.0,0,-1,-2,1,1,-2,2,10,9,17,5,-5
1304.0,0,-1,-2,1,1,-2,2,10,9,18,5,-5
1305.0,0,-1,-2,1,1,-2,2,10,10,18,5,-5
1306.0,0,-1,-2,1,1,-2,2,10,10,18,5,-5
1307.0,0,-1,-2,1,1,-2,2,10,10,18,6,-5
1308.0,0,-1,-2,1,1,-2,2,10,10,19,6,-5
1309.0,0,-1,-2,1,1,-2,2,10,10,19,6,-5
1310.0,0,-1,-2,1,1,-2,2,10,10,19,6,-5
1311.0,0,-1,-2,1,1,-2,2,10,10,19,6,-5
1312.0,0,-1,-2,1,1,-2,2,10,10,20,7,-5
1313.0,0,-1,-2,1,1,-2,2,10,10,20,7,-5
1314.0,0,-1,-2,1,1,-2,2,10,10,20,7,-5
1315.0,0,-1,-2,1,1,-2,2,10,10,20,7,-5
1316.0,0,-1,-2,1,1,-2,2,10,10,20,7,-4
1317.0,0,-1,-2,1,1,-2,2,10,10,20,7,-4
1318.0,0,-1,-2,1,1,-2,2,10,10,20,7,-4
1319.0,0,-1,-2,1,1,-2,2,10,10,21,7,-4
1320.0,0,-1,-2,1,1,-2,2,10,10,21,7,-4
1321.0,0,-1,-2,1,1,-2,2,11,10,21,7,-4
1322.0,0,-1,-2,1,1,-2,2,11,10,21,8,-4
1323.0,0,-1,-2,1,1,-2,2,11,11,21,8,-4
1324.0,0,-1,-2,1,1,-2,2,11,11,21,8,-4
1325.0,0,-1,-2,1,1,-2,2,11,11,21,8,-4
1326.0,0,-1,-2,1,1,-2,2,11,11,21,8,-4
1327.0,0,-1,-2,1,1,-2,2,11,11,22,8,-4
1328.0,0,-1,-2,1,1,-2,2,11,11,22,8,-4
1329.0,0,-1,-2,1,1,-2,2,11,11,22,8,-4
1330.0,0,-1,-2,1,1,-2,2,11,11,22,8,-4
1331.0,0,-1,-2,1,1,-2,2,11,11,22,8,-4
1332.0,0,-1,-2,1,1,-2,2,11,11,22,8,-4
1333.0,0,-1,-2,1,1,-2,2,11,11,22,8,-4
1334.0,0,-1,-2,1,0,-2,2,11,11,22,8,-4
1335.0,0,-1,-2,1,0,-2,2,11,11,22,8,-4
1336.0,0,-1,-2,1,0,-2,2,11,11,22,9,-4
1337.0,0,-1,-2,1,0,-2,2,11,11,22,9,-4
1338.0,0,-1,-2,1,0,-2,2,11,11,22,9,-4
1339.0,0,-1,-2,1,0,-2,2,11,11,22,9,-4
1340.0,0,-1,-2,1,0,-2,2,11,11,23,9,-4
1341.0,0,-1,-2,1,0,-2,2,11,11,23,9,-4
1342.0,0,-1,-2,1,0,-2,2,11,11,23,9,-4
1343.0,0,0,-2,1,1,-2,2,11,11,23,9,-4
1344.0,0,0,-2,1,1,-2,2,11,11,23,9,-4
1345.0,0,0,-2,1,1,-2,2,11,11,23,9,-4
1346.0,0,-1,-2,1,0,-2,2,11,11,23,9,-4
1347.0,0,-1,-2,1,0,-2,2,11,11,23,9,-4
1348.0,0,-1,-2,1,0,-2,2,11,11,23,9,-4
1349.0,0,-1,-2,1,0,-2,2,11,11,23,9,-4
1350.0,0,-1,-2,1,0,-2,2,11,11,23,9,-4
1351.0,0,-1,-1,1,0,-2,2,11,11,23,9,-4
1352.0,0,-1,-1,1,0,-2,2,11,11,23,9,-4
1353.0,0,-1,-1,1,0,-2,2,11,11,23,9,-4
1354.0,0,-1,-1,1,0,-2,2,11,11,23,9,-4
1355.0,0,-1,-1,1,0,-2,2,11,11,23,9,-4
1356.0,0,-1,-1,1,0,-2,2,11,11,23,9,-4
1357.0,0,-1,-1,1,0,-2,2,11,11,23,9,-4
1358.0,0,-1,-2,1,0,-2,2,11,12,23,9,-4
1359.0,0,-1,-2,1,0,-2,2,11,12,23,9,-4
1360.0,0,-1,-2,1,0,-2,2,11,12,23,9,-4
1361.0,0,-1,-2,1,0,-2,2,11,12,23,9,-4
1362.0,0,0,-2,1,0,-2,2,11,12,23,9,-3
1363.0,0,0,-2,1,1,-2,2,12,12,23,9,-3
1364.0,0,0,-2,1,1,-2,2,12,12,23,9,-3
1365.0,0,0,-2,1,1,-2,2,12,12,23,10,-3
1366.0,0,0,-2,0,1,-2,2,12,12,24,10,-3
1367.0,0,0,-2,0,1,-2,2,12,12,24,10,-3
1368.0,0,0,-2,0,1,-2,2,12,12,24,10,-3
1369.0,0,0,-2,0,1,-2,2,12,12,24,10,-3
1370.0,0,0,-2,0,1,-2,2,12,12,24,10,-3
1371.0,0,0,-2,0,1,-2,2,12,12,24,10,-3
1372.0,0,0,-2,0,1,-2,2,12,12,24,10,-3
1373.0,0,0,-2,0,1,-2,2,12,12,24,10,-3
1374.0,0,0,-2,0,1,-2,2,12,12,24,10,-3
1375.0,0,0,-2,0,1,-2,2,12,12,24,10,-3
1376.0,0,0,-2,0,1,-2,2,12,12,24,10,-3
1377.0,0,0,-2,0,1,-2,2,12,12,24,10,-3
1378.0,0,0,-2,0,1,-2,2,12,12,24,10,-3
1379.0,0,0,-2,0,1,-2,2,12,12,24,10,-3
1380.0,0,0,-2,0,1,-2,2,12,12,24,10,-3
1381.0,0,0,-2,0,1,-2,2,12,12,24,10,-3
1382.0,0,0,-2,0,1,-2,2,12,12,24,10,-3
1383.0,0,0,-2,0,1,-2,2,12,13,24,10,-3
1384.0,0,0,-2,0,1,-2,2,12,13,24,10,-3
1385.0,0,0,-2,0,1,-2,2,12,13,24,10,-3
1386.0,0,0,-2,0,1,-2,2,12,13,24,10,-3
1387.0,0,0,-2,0,1,-2,2,12,13,24,10,-3
1388.0,0,0,-2,0,1,-1,2,12,13,24,10,-3
1389.0,0,0,-2,0,1,-1,2,12,13,24,10,-3
1390.0,0,0,-2,0,1,-1,2,12,13,24,10,-3
1391.0,0,0,-2,0,1,-1,2,12,13,24,10,-3
1392.0,0,0,-2,0,1,-1,2,12,13,24,10,-3
1393.0,0,0,-2,0,1,-1,2,12,13,24,10,-3
1394.0,0,0,-2,0,1,-2,2,12,13,25,10,-3
1395.0,0,0,-2,0,1,-2,2,12,13,25,10,-3
1396.0,0,0,-2,0,1,-2,2,12,13,25,10,-3
1397.0,0,0,-2,0,1,-2,2,12,13,25,10,-3
1398.0,0,0,-2,0,1,-2,2,12,13,25,11,-3
1399.0,0,0,-2,0,1,-2,2,12,13,25,11,-3
1400.0,0,0,-2,0,1,-2,2,12,13,25,11,-3
1401.0,0,0,-2,0,1,-2,2,13,14,25,11,-3
1402.0,0,0,-2,0,1,-2,2,13,14,25,11,-3
1403.0,0,0,-2,0,1,-2,2,13,14,25,11,-3
1404.0,0,0,-2,0,1,-2,2,13,14,25,11,-3
1405.0,0,0,-2,0,1,-1,2,13,14,25,11,-2
1406.0,0,0,-2,0,1,-1,2,13,14,25,11,-2
1407.0,0,0,-2,0,1,-1,2,13,14,25,11,-2
1408.0,0,0,-2,0,1,-1,2,13,14,26,11,-2
1409.0,0,0,-2,0,1,-1,2,13,14,26,11,-2
1410.0,0,0,-2,0,1,-1,2,13,14,26,11,-2
1411.0,0,0,-2,0,1,-1,2,13,14,26,11,-2
1412.0,0,0,-2,0,1,-1,2,13,14,26,11,-2
1413.0,0,0,-2,0,1,-1,2,13,14,26,11,-2
1414.0,0,0,-2,0,1,-1,2,13,15,26,11,-2
1415.0,0,0,-2,0,1,-1,2,13,15,26,11,-2
1416.0,0,0,-2,0,1,-1,2,13,15,26,12,-2
1417.0,0,0,-2,0,1,-1,2,13,15,26,12,-2
1418.0,0,0,-2,0,1,-1,2,14,15,26,12,-2
1419.0,0,0,-2,0,1,-1,2,14,15,27,12,-2
1420.0,0,0,-2,0,1,-1,2,14,15,27,12,-2
1421.0,0,0,-2,0,1,-1,2,14,16,27,12,-2
1422.0,0,0,-2,0,1,-1,2,14,16,27,12,-2
1423.0,0,0,-2,0,1,-1,2,14,16,27,12,-2
1424.0,1,0,-2,0,1,-1,2,14,16,27,12,-2
1425.0,1,0,-2,0,1,-1,2,14,16,27,12,-2
1426.0,1,0,-2,0,1,-1,2,14,16,27,12,-2
1427.0,1,0,-2,0,1,-1,2,14,17,28,13,-2
1428.0,1,0,-2,0,1,-1,2,14,17,28,13,-2
1429.0,1,0,-2,0,1,-1,2,15,17,28,13,-2
1430.0,1,0,-2,0,1,-1,2,15,17,28,13,-1
1431.0,1,0,-2,0,1,-1,2,15,17,28,13,-1
1432.0,1,0,-2,0,1,-1,2,15,17,29,13,-1
1433.0,1,0,-2,0,1,-1,2,15,18,29,13,-1
1434.0,1,0,-2,0,1,-1,2,15,18,29,13,-1
1435.0,1,0,-2,0,1,-1,2,15,18,29,14,-1
1436.0,1,0,-2,0,1,-1,2,15,18,29,14,-1
1437.0,1,0,-2,0,1,-1,2,15,18,30,14,-1
1438.0,1,0,-2,0,1,-1,2,15,18,30,14,-1
1439.0,1,0,-2,0,1,-1,2,16,19,30,14,-1
1440.0,1,0,-2,0,1,-1,2,16,19,30,14,-1
1441.0,1,0,-2,0,1,-1,2,16,19,31,14,-1
1442.0,1,0,-2,0,1,-1,2,16,19,31,14,-1
1443.0,1,0,-2,0,1,-1,2,16,20,31,15,-1
1444.0,1,0,-2,0,1,-1,2,17,20,31,15,-1
1445.0,1,1,-2,0,1,-1,2,17,20,32,15,-1
1446.0,1,1,-2,0,1,-1,2,17,21,32,15,-1
1447.0,1,1,-2,0,1,-1,2,17,21,32,15,-1
1448.0,1,1,-2,0,2,-1,2,17,21,32,16,-1
1449.0,1,1,-2,0,2,-1,2,17,21,33,16,-1
1450.0,1,1,-2,0,2,-1,2,17,21,33,16,0
1451.0,2,1,-2,0,2,-1,2,18,22,33,16,0
1452.0,2,1,-2,0,2,-1,2,18,22,34,16,0
1453.0,2,1,-2,0,2,-1,2,18,22,34,17,0
1454.0,2,1,-2,0,2,-1,2,18,22,34,17,0
1455.0,2,1,-2,0,2,-1,2,18,23,35,17,0
1456.0,2,1,-2,0,2,-1,2,19,23,35,17,0
1457.0,1,1,-2,0,2,-1,2,19,23,35,17,0
1458.0,1,1,-2,0,2,-1,2,19,24,36,18,0
1459.0,1,1,-2,0,2,-1,2,19,24,36,18,0
1460.0,1,1,-2,0,2,-1,2,19,24,36,18,1
1461.0,1,1,-2,0,2,-1,2,19,24,37,18,1
1462.0,2,1,-2,0,2,-1,2,20,25,37,19,1
1463.0,2,1,-2,0,2,-1,2,20,25,37,19,1
1464.0,2,1,-2,0,2,-1,2,20,25,38,19,1
1465.0,2,1,-2,0,2,-1,2,20,25,38,19,1
1466.0,2,1,-2,0,2,-1,2,20,26,38,20,1
1467.0,2,1,-2,0,2,-1,2,20,26,39,20,1
1468.0,2,1,-2,0,2,-1,2,21,26,39,20,1
1469.0,2,1,-2,0,2,-1,2,21,26,39,20,1
1470.0,2,1,-2,0,2,-1,1,21,27,40,21,1
1471.0,2,1,-2,-1,2,-1,1,21,27,40,21,1
1472.0,3,1,-2,-1,2,-1,1,22,27,40,21,1
1473.0,3,1,-2,-1,2,-1,1,22,28,41,21,1
1474.0,3,1,-2,-1,2,-1,1,22,28,41,22,1
1475.0,3,1,-2,-1,2,-1,1,22,28,41,22,1
1476.0,3,1,-2,-1,2,-1,1,22,28,42,22,2
1477.0,3,1,-2,-1,2,-1,1,22,29,42,22,2
1478.0,3,1,-2,-1,2,-1,1,23,29,42,23,2
1479.0,3,2,-2,-1,2,-1,0,23,29,43,23,2
1480.0,3,2,-2,-1,2,-1,0,23,29,43,23,2
1481.0,3,2,-2,-1,2,0,0,23,29,43,23,2
1482.0,3,2,-2,-1,2,0,0,23,30,44,24,3
1483.0,3,2,-2,-1,2,0,0,23,30,44,24,3
1484.0,3,2,-2,-1,2,0,0,24,30,44,24,3
1485.0,3,3,-2,-2,2,0,0,24,30,44,24,3
1486.0,4,3,-2,-2,2,0,0,24,31,45,25,4
1487.0,4,3,-2,-2,2,0,0,24,31,45,25,4
1488.0,4,3,-2,-2,2,0,0,24,31,45,25,4
1489.0,4,3,-2,-2,2,0,0,24,31,45,25,4
1490.0,4,4,-1,-2,2,0,0,24,31,46,25,4
1491.0,4,4,-1,-2,2,0,0,24,31,46,26,4
1492.0,4,4,-1,-2,2,0,0,24,31,46,26,5
1493.0,4,4,-1,-2,2,0,0,24,31,46,26,5
1494.0,4,4,-1,-2,2,0,0,24,31,46,26,5
1495.0,4,4,-1,-3,2,0,-1,24,31,46,26,5
1496.0,4,4,-1,-3,2,0,-1,23,31,46,26,5
1497.0,4,4,-1,-3,2,0,-1,23,31,47,27,5
1498.0,4,4,-1,-3,2,0,-1,23,30,47,27,5
1499.0,4,4,-1,-3,2,0,-1,23,30,47,27,5
1500.0,4,5,-1,-3,2,0,-1,23,30,47,27,5
1501.0,4,5,-1,-3,2,0,-2,23,30,47,27,6
1502.0,4,5,-1,-3,2,0,-2,22,30,47,27,6
1503.0,4,5,-1,-3,2,1,-2,22,29,47,27,6
1504.0,4,5,-1,-3,2,1,-2,22,29,47,27,6
1505.0,4,5,0,-3,2,1,-2,22,29,47,27,6
1506.0,4,5,0,-3,2,1,-2,21,28,46,27,6
1507.0,4,5,0,-3,2,1,-2,21,28,46,27,7
1508.0,4,5,0,-4,2,1,-2,21,28,46,27,7
1509.0,4,5,0,-4,2,1,-2,21,27,46,27,7
1510.0,4,5,0,-4,2,1,-3,20,27,46,27,7
1511.0,4,5,0,-4,2,1,-3,20,26,46,27,7
1512.0,4,5,0,-4,2,1,-3,20,26,45,27,7
1513.0,4,5,0,-4,2,1,-3,19,25,45,27,7
1514.0,4,5,0,-4,2,1,-3,19,25,45,27,7
1515.0,4,5,0,-4,2,1,-3,19,24,44,27,7
1516.0,4,5,0,-4,2,1,-3,18,24,44,27,7
1517.0,4,5,0,-4,2,1,-3,18,23,44,27,7
1518.0,4,5,0,-4,2,1,-3,18,23,43,27,7
1519.0,4,5,0,-4,2,1,-3,18,22,43,26,7
1520.0,5,5,0,-4,2,1,-3,17,22,42,26,7
1521.0,5,5,0,-4,2,1,-3,17,21,42,26,7
1522.0,5,5,0,-4,2,1,-3,17,21,42,26,8
1523.0,5,5,0,-4,2,1,-3,17,20,41,26,8
1524.0,5,5,0,-4,2,1,-3,16,20,41,25,8
1525.0,5,5,0,-4,2,1,-3,16,19,40,25,8
1526.0,5,5,0,-4,2,1,-3,16,19,39,25,8
1527.0,5,5,0,-4,2,1,-3,15,18,39,25,8
1528.0,5,5,0,-4,2,1,-3,15,18,38,24,8
1529.0,5,5,0,-4,2,1,-3,15,17,38,24,8
1530.0,5,5,0,-4,2,1,-2,14,17,37,24,8
1531.0,5,5,0,-4,2,1,-2,14,16,36,24,8
1532.0,5,5,0,-4,2,1,-2,14,15,36,23,7
1533.0,5,5,0,-4,2,1,-2,13,15,35,23,7
1534.0,5,5,0,-4,2,1,-2,13,14,34,23,7
1535.0,5,5,0,-4,2,1,-2,12,14,34,22,7
1536.0,5,5,0,-4,2,1,-2,12,13,33,22,7
1537.0,5,4,0,-4,2,1,-2,12,13,32,21,7
1538.0,5,4,0,-4,2,1,-2,11,12,32,21,7
1539.0,4,4,0,-4,2,1,-2,11,12,31,21,7
1540.0,4,4,0,-4,2,1,-2,11,11,30,20,7
1541.0,4,4,0,-4,2,1,-2,10,11,29,20,7
1542.0,4,4,0,-4,2,1,-2,10,10,29,19,7
1543.0,4,4,0,-4,2,1,-2,10,10,28,19,6
1544.0,4,4,0,-4,2,1,-2,9,10,27,19,6
1545.0,4,4,0,-4,2,1,-2,9,9,27,18,6
1546.0,4,4,0,-4,2,1,-2,9,9,26,18,6
1547.0,4,4,0,-4,2,1,-2,8,9,25,17,6
1548.0,4,4,0,-4,2,1,-2,8,8,24,17,6
1549.0,4,4,0,-4,2,1,-1,8,8,24,16,6
1550.0,4,4,0,-4,2,1,-1,7,8,23,16,6
1551.0,4,4,0,-4,2,1,-1,7,7,22,16,6
1552.0,4,4,0,-4,2,1,-1,7,7,22,15,6
1553.0,4,4,0,-3,2,1,-1,7,7,21,15,5
1554.0,4,4,0,-3,2,1,-1,6,6,20,14,5
1555.0,4,4,0,-3,2,1,-1,6,6,19,14,5
1556.0,3,3,0,-3,2,1,-1,6,6,19,13,5
1557.0,3,3,0,-3,2,1,-1,5,5,18,13,5
1558.0,3,3,0,-3,2,1,-1,5,5,17,12,5
1559.0,3,3,0,-3,2,1,-1,5,5,17,12,5
1560.0,3,3,0,-3,2,1,-1,4,4,16,12,5
1561.0,3,3,0,-3,2,1,-1,4,4,15,11,4
1562.0,3,3,0,-3,2,1,-1,4,4,15,11,4
1563.0,3,3,0,-3,2,1,-1,4,4,14,10,4
1564.0,3,3,0,-3,2,1,-1,3,3,14,10,4
1565.0,3,3,0,-3,2,1,-1,3,3,13,10,4
1566.0,3,3,0,-3,2,1,-1,3,3,13,9,4
1567.0,3,3,0,-3,2,0,-1,3,3,12,9,4
1568.0,3,3,0,-3,2,0,-1,3,3,11,8,4
1569.0,2,3,0,-3,2,0,-1,2,2,11,8,4
1570.0,2,3,0,-3,2,0,0,2,2,10,8,4
1571.0,2,3,0,-3,2,0,0,2,2,10,7,4
1572.0,2,3,0,-2,1,0,0,2,2,9,7,3
1573.0,2,3,0,-2,1,1,0,2,2,9,7,3
1574.0,2,3,0,-2,1,1,0,2,2,8,6,3
1575.0,2,3,0,-2,1,1,0,2,2,8,6,3
1576.0,2,3,0,-2,1,1,0,2,2,8,6,3
1577.0,2,3,0,-2,1,1,0,2,2,7,6,3
1578.0,2,3,0,-2,1,1,0,2,2,7,5,3
1579.0,2,3,0,-2,1,1,0,2,2,6,5,3
1580.0,2,3,0,-2,1,1,0,2,2,6,5,3
1581.0,2,3,0,-2,1,1,0,1,2,5,4,3
1582.0,2,3,0,-2,1,1,0,1,2,5,4,3
1583.0,2,3,0,-2,1,1,0,1,1,5,4,3
1584.0,2,3,0,-2,1,1,0,1,1,5,4,3
1585.0,2,3,0,-2,1,1,0,1,1,5,3,3
1586.0,2,3,0,-2,1,1,0,1,1,5,3,3
1587.0,2,3,0,-2,1,1,0,1,1,4,3,3
1588.0,2,3,0,-2,1,1,0,1,1,4,3,2
1589.0,2,3,0,-2,1,1,0,0,1,4,2,2
1590.0,2,3,0,-2,1,1,0,0,1,3,2,2
1591.0,2,3,0,-2,1,1,0,0,0,3,2,2
1592.0,1,3,0,-2,1,1,0,0,0,3,2,2
1593.0,1,3,0,-2,1,1,0,0,0,3,2,2
1594.0,1,2,0,-2,1,1,0,0,0,2,2,2
1595.0,1,2,0,-2,0,1,0,0,0,2,2,2
1596.0,1,2,0,-2,0,1,0,0,0,2,2,2
1597.0,1,2,0,-2,0,1,0,0,0,2,2,2
1598.0,1,2,0,-1,0,1,0,0,0,1,1,2
1599.0,1,2,0,-1,0,1,0,0,0,1,1,2
1600.0,1,2,0,-1,0,1,0,0,0,1,1,2
1601.0,1,2,0,-1,0,1,0,0,0,1,1,1
1602.0,1,2,0,-1,0,1,0,-1,-1,0,1,1
1603.0,1,2,0,-1,0,1,1,-1,-1,0,1,1
1604.0,1,2,0,-1,0,1,1,-1,-1,0,0,1
1605.0,1,2,0,-1,0,1,1,-1,-1,0,0,1
1606.0,1,2,0,-1,0,1,1,-1,-1,0,0,1
1607.0,1,2,0,-1,0,1,1,-1,-1,0,0,1
1608.0,1,2,0,-1,0,1,1,-1,-1,-1,0,1
1609.0,1,2,0,-1,0,1,1,-1,-1,-1,0,1
1610.0,1,2,0,-1,0,1,1,-1,-1,-1,0,1
1611.0,1,2,0,-1,0,1,1,-1,-1,-1,0,1
1612.0,1,2,0,-1,0,1,1,-1,-1,-1,0,1
1613.0,1,2,0,-1,0,1,1,-1,-1,-1,0,1
1614.0,1,2,0,-1,0,1,1,-1,-1,-1,-1,1
1615.0,1,2,0,-1,0,1,1,-1,-1,-1,-1,1
1616.0,1,2,0,-1,0,1,1,-1,-1,-2,-1,1
1617.0,1,2,0,-1,0,1,1,-1,-1,-2,-1,1
1618.0,0,2,0,-1,0,1,1,-1,-1,-2,-1,1
1619.0,0,2,0,-1,0,1,1,-1,-1,-2,-1,1
1620.0,0,2,0,-1,0,1,1,-1,-2,-2,-1,1
1621.0,0,2,0,-1,0,1,1,-1,-2,-2,-1,1
1622.0,0,2,0,-1,0,1,1,-1,-2,-2,-1,1
1623.0,0,2,0,-1,0,1,1,-1,-2,-2,-1,1
1624.0,0,2,0,-1,0,1,1,-1,-2,-2,-1,1
1625.0,0,2,0,-1,0,0,1,-1,-2,-2,-2,1
1626.0,0,2,0,-1,0,0,1,-1,-2,-2,-2,1
1627.0,0,1,0,-1,0,0,1,-1,-2,-3,-2,1
1628.0,0,1,0,-1,0,0,1,-1,-2,-3,-2,1
1629.0,0,1,0,0,0,0,1,-1,-2,-3,-2,1
1630.0,0,1,0,0,0,0,1,-1,-2,-3,-2,1
1631.0,0,1,0,0,0,0,1,-1,-2,-3,-2,0
1632.0,0,1,0,0,0,0,2,-1,-2,-3,-2,0
1633.0,0,1,0,0,0,0,2,-1,-2,-3,-2,0
1634.0,0,1,0,0,0,0,2,-1,-2,-3,-2,0
1635.0,0,1,0,0,0,0,2,-1,-2,-3,-2,0
1636.0,0,1,0,0,0,0,2,-1,-2,-3,-2,0
1637.0,0,1,0,0,0,0,2,-1,-2,-3,-2,0
1638.0,0,1,0,0,0,0,2,-1,-2,-3,-3,0
1639.0,0,1,0,0,0,0,2,-1,-2,-3,-3,0
1640.0,0,1,0,0,0,0,2,-1,-2,-3,-3,0
1641.0,0,1,0,0,0,0,2,-1,-2,-3,-3,0
1642.0,0,1,0,0,0,0,2,-1,-2,-3,-3,0
1643.0,0,1,0,0,0,0,2,-1,-2,-3,-3,0
1644.0,0,1,0,0,0,0,2,-1,-2,-3,-3,0
1645.0,0,1,0,0,0,0,2,-1,-2,-3,-3,0
1646.0,0,1,0,0,0,0,2,-1,-2,-3,-3,0
1647.0,0,1,0,0,0,0,2,-1,-2,-3,-3,0
1648.0,0,1,0,0,0,0,2,-1,-2,-3,-3,0
1649.0,0,1,0,0,0,0,2,-1,-2,-3,-3,0
1650.0,0,1,0,0,0,0,2,-1,-2,-3,-3,0
1651.0,0,1,0,0,0,0,2,-1,-2,-3,-3,0
1652.0,0,1,0,0,0,0,2,-1,-2,-3,-3,0
1653.0,0,1,0,0,0,0,2,-1,-2,-3,-3,0
1654.0,0,1,0,0,0,0,2,-1,-2,-3,-3,0
1655.0,0,1,0,0,0,0,2,-1,-2,-3,-3,0
1656.0,0,1,0,0,0,0,2,-1,-2,-3,-3,0
1657.0,0,1,0,0,0,0,2,-1,-2,-3,-3,0
1658.0,0,1,0,0,0,0,2,-1,-2,-3,-3,0
1659.0,0,1,0,0,0,0,2,-1,-2,-3,-3,0
1660.0,0,1,0,0,0,0,2,-1,-2,-3,-3,0
1661.0,0,1,0,0,0,0,2,-1,-2,-3,-3,0
